Time (s),Wave elevation (m)
0.0,1.500069814405982
0.25,1.500069814405982
0.5,1.5923253552698604
0.75,1.613738111049107
1.0,1.5647557924191655
1.25,1.453777257685265
1.5,1.2948011312531411
1.75,1.1039462500963295
2.0,0.8959039646297238
2.25,0.6813360288312297
2.5,0.4658862389526916
2.75,0.2509434861098105
3.0,0.0357442089197838
3.25,-0.1799996352614604
3.5,-0.3938961934952172
3.75,-0.5998744007754203
4.0,-0.788756605351718
4.25,-0.9502389462516178
4.5,-1.0756332095911565
4.75,-1.160441712509043
5.0,-1.2058457275788723
5.25,-1.2184920865527984
5.5,-1.2084767379418615
5.75,-1.1859980283318727
6.0,-1.1576145109037947
6.25,-1.1232486630803578
6.5,-1.0749561502936271
6.75,-0.9980503905385832
7.0,-0.8745434610352798
7.25,-0.6882059706593749
7.5,-0.4300428568947427
7.75,-0.1027742765925137
8.0,0.2769320418537024
8.25,0.6792386876211375
8.5,1.0649820647068513
8.75,1.3918946470091378
9.0,1.6219301970702644
9.25,1.7281301062483068
9.5,1.6995568627254662
9.75,1.543257193309473
10.0,1.282889537394179
10.25,0.9543885656962844
10.5,0.5996628027137763
10.75,0.2596853509491602
11.0,-0.0316307214888802
11.25,-0.2516674435239662
11.5,-0.390854606331071
11.75,-0.4519417972511665
12.0,-0.4473165788783171
12.25,-0.3952300385260209
12.5,-0.3158746631339109
12.75,-0.2281041675456139
13.0,-0.1472644777307911
13.25,-0.084229635674615
13.5,-0.0454177945085973
13.75,-0.0333820611740925
14.0,-0.0475586611397874
14.25,-0.0848851505943744
14.5,-0.1402059679115976
14.75,-0.2065758006217093
15.0,-0.2756789796713703
15.25,-0.3385668971999799
15.5,-0.3867838478932413
15.75,-0.4137562124075381
16.0,-0.4161368222976852
16.25,-0.3947006007819293
16.5,-0.354426947109721
16.75,-0.3035822309114084
17.0,-0.2518880675533443
17.25,-0.2081482191248272
17.5,-0.1779178842741558
17.75,-0.1618594715040139
18.0,-0.1553054178113911
18.25,-0.1492615977769159
18.5,-0.1327051921077647
18.75,-0.0956613117926486
19.0,-0.0322891935760509
19.25,0.0568500970248073
19.5,0.1640095243870926
19.75,0.2752693930482351
20.0,0.3732098642921573
20.25,0.4406693180678208
20.5,0.4647138742298607
20.75,0.4398592110431282
21.0,0.3697453307249272
21.25,0.2668298796538096
21.5,0.1501428277821127
21.75,0.0416115213625739
22.0,-0.038199706478225
22.25,-0.0739716630016013
22.5,-0.0582933125038802
22.75,0.0074076026657036
23.0,0.1137383217535663
23.25,0.2456549727381527
23.5,0.3855352745145284
23.75,0.516209111294934
24.0,0.623246464529574
24.25,0.6960842981861515
24.5,0.7279509143435059
24.75,0.7149077400251077
25.0,0.6545719289733515
25.25,0.5451421108019145
25.5,0.3852115148763868
25.75,0.174561343311614
26.0,-0.0842302949230285
26.25,-0.3838469692883818
26.5,-0.7106281715310688
26.75,-1.0439621537896302
27.0,-1.357140572119182
27.25,-1.6197931634553535
27.5,-1.8016195637366903
27.75,-1.876782924507678
28.0,-1.8281187464079307
28.25,-1.650298425810022
28.5,-1.3512759994592636
28.75,-0.9516929935907252
29.0,-0.4823362588032347
29.25,0.0198629472642999
29.5,0.5165244903372211
29.75,0.9723464932051816
30.0,1.3586939797219912
30.25,1.6557321861525651
30.5,1.852933627034505
30.75,1.9481411561938893
31.0,1.9456480203963376
31.25,1.8539017781365643
31.5,1.683428962077073
31.75,1.445426934019604
32.0,1.1512258916985636
32.25,0.8125532211244697
32.5,0.4423017912067887
32.75,0.0553667347320948
33.0,-0.3309001091659331
33.25,-0.6969642240863239
33.5,-1.0222612548834114
33.75,-1.2871402853903866
34.0,-1.475283547800312
34.25,-1.5761276869531904
34.5,-1.5867527086791788
34.75,-1.5127633148117865
35.0,-1.367855226334793
35.25,-1.1720059444540956
35.5,-0.9485082215882662
35.75,-0.7203200308455545
36.0,-0.5063833080581344
36.25,-0.3186230861489509
36.5,-0.1602571369091011
36.75,-0.0258285221537887
37.0,0.096947769862333
37.25,0.223800470277666
37.5,0.3695974932165809
37.75,0.5439788766984929
38.0,0.7478631598016701
38.25,0.97164774301318
38.5,1.195622172415472
38.75,1.392675215336262
39.0,1.5328872681133294
39.25,1.5891637964268912
39.5,1.5427849461551
39.75,1.3876957950843338
40.0,1.1325682678924678
40.25,0.800099027989349
40.5,0.42358212378339
40.75,0.0413866708265117
41.0,-0.3095569596678106
41.25,-0.5999185734684613
41.5,-0.8124902653530753
41.75,-0.9441327975939824
42.0,-1.004779667563456
42.25,-1.0137919167555374
42.5,-0.9945513847509732
42.75,-0.9685673422993952
43.0,-0.9504569846946224
43.25,-0.9449227914528658
43.5,-0.94634764497774
43.75,-0.9409864351359356
44.0,-0.9111105382835024
44.25,-0.8400135855059733
44.5,-0.716622647143069
44.75,-0.5386139423783868
45.0,-0.3133589222404692
45.25,-0.0566071096537996
45.5,0.2106104139236808
45.75,0.4659519385966116
46.0,0.6895494033579515
46.25,0.8666877030937196
46.5,0.98885266687693
46.75,1.0531431906437565
47.0,1.060539365873764
47.25,1.013842041405496
47.5,0.9161533240561062
47.75,0.770534551549056
48.0,0.581026604530863
48.25,0.3546833513673115
48.5,0.1038187751451595
48.75,-0.1525497367831436
49.0,-0.3889792653562518
49.25,-0.5761035968464983
49.5,-0.685233136089073
49.75,-0.6942488650288278
50.0,-0.5934575962055776
50.25,-0.3898615986971476
50.5,-0.1084870852285137
50.75,0.2100026154373567
51.0,0.515335937776643
51.25,0.7563214824992519
51.5,0.8904761950795519
51.75,0.892510772832157
52.0,0.7597170676137391
52.25,0.5129144020603057
52.5,0.1925789104697562
52.75,-0.1491230185868152
53.0,-0.4587152659165271
53.25,-0.6919393951327016
53.5,-0.8221040685598179
53.75,-0.8444244504494396
54.0,-0.775450136561675
54.25,-0.6478257201116197
54.5,-0.5017113046540104
54.75,-0.3749482777415851
55.0,-0.2943060896590808
55.25,-0.269832298089511
55.5,-0.2935340256500051
55.75,-0.3425453355541726
56.0,-0.3858493303051802
56.25,-0.3927921182851766
56.5,-0.3412463396202134
56.75,-0.2234365209174268
57.0,-0.0480744667480425
57.25,0.1616007426163595
57.5,0.3732701645056864
57.75,0.5530340763985774
58.0,0.673083077925339
58.25,0.7176969670941181
58.5,0.6862139160392994
58.75,0.5924106526669528
59.0,0.4606315568591685
59.25,0.3197726558044142
59.5,0.1966801539390648
59.75,0.1105652618011016
60.0,0.0696796608722606
60.25,0.0708518861270632
60.5,0.1017342901364235
60.75,0.1449505682976626
61.0,0.1829280323960865
61.25,0.202134793123953
61.5,0.195713549996332
61.75,0.1640171209494635
62.0,0.1131543634012383
62.25,0.0521820592150647
62.5,-0.0101077916429108
62.75,-0.0678263422246084
63.0,-0.1193183540893634
63.25,-0.166887509415201
63.5,-0.2151149468630227
63.75,-0.2683825755625263
64.0,-0.3284310204078464
64.25,-0.3927516363349178
64.5,-0.4543500870333251
64.75,-0.5030063045907377
65.0,-0.5277122261304473
65.25,-0.5196196035030228
65.5,-0.4746712305088799
65.75,-0.3951615098830777
66.0,-0.2897536491698382
66.25,-0.1718919714897498
66.5,-0.056976409730229
66.75,0.0410027425850161
67.0,0.1125251448745566
67.25,0.1545253476259233
67.5,0.1708048318607409
67.75,0.1707718526060823
68.0,0.166829277094854
68.25,0.1710644027968544
68.5,0.1920604874197061
68.75,0.2326098209155362
69.0,0.28887769002519
69.25,0.3512074915411355
69.5,0.406361028953791
69.75,0.440651721508125
70.0,0.4432304852521011
70.25,0.4087659132213438
70.5,0.3389184964018277
70.75,0.2422976923232043
71.0,0.1329370377771748
71.25,0.0276436639208562
71.5,-0.057196734268223
71.75,-0.1086940794812859
72.0,-0.1198061412062956
72.25,-0.0905542755077111
72.5,-0.0279451473872268
72.75,0.0552944950051587
73.0,0.1428488599496144
73.25,0.2173655722497436
73.5,0.262967602758252
73.75,0.2673397201100013
74.0,0.2231446156402879
74.25,0.1286852893133585
74.5,-0.0121275116203582
74.75,-0.1903504966492668
75.0,-0.3929408259799764
75.25,-0.6038844861980095
75.5,-0.8054146185241992
75.75,-0.979278160796505
76.0,-1.10805334836895
76.25,-1.1765277242941363
76.5,-1.1731126028346823
76.75,-1.0912062705586534
77.0,-0.9303468627741368
77.25,-0.6969441780141895
77.5,-0.4043723206899837
77.75,-0.072256551162921
78.0,0.2751024481728565
78.25,0.6110724609892955
78.5,0.9095453034120656
78.75,1.1479124177127362
79.0,1.309696552363937
79.25,1.3863913654234703
79.5,1.3781716835032731
79.75,1.2933285298361048
80.0,1.14651996196005
80.25,0.9561623701460292
80.5,0.7414647087726721
80.75,0.5196861897874725
81.0,0.3041519416373567
81.25,0.1033937980247602
81.5,-0.0784738355977344
81.75,-0.2403252575143582
82.0,-0.3819840761069398
82.25,-0.5021788788598156
82.5,-0.5971211718232134
82.75,-0.6601975644226648
83.0,-0.6829984558045008
83.25,-0.657557740492632
83.5,-0.5793318839100456
83.75,-0.4501873112005944
84.0,-0.2805630733146471
84.25,-0.0900693555643542
84.5,0.0939341444396523
84.75,0.2398137754056929
85.0,0.3167517618060106
85.25,0.3005911869156992
85.5,0.1793112940527832
85.75,-0.0430329935868628
86.0,-0.3448661857739268
86.25,-0.6886752279724017
86.5,-1.025589442011733
86.75,-1.3023367743071437
87.0,-1.46946298198643
87.25,-1.4894095421190787
87.5,-1.3430214499932938
87.75,-1.033307087397754
88.0,-0.5857513019359819
88.25,-0.045095332658422
88.5,0.5308774456368106
88.75,1.079494031895021
89.0,1.5419146267304562
89.25,1.871003602814674
89.5,2.0371300125734857
89.75,2.03109019909038
90.0,1.863876262717988
90.25,1.5635601857082153
90.5,1.1700235999728954
90.75,0.7285605178786313
91.0,0.2834744395553442
91.25,-0.127317374587388
91.5,-0.4759337106422578
91.75,-0.7460705950030748
92.0,-0.932474124736955
92.25,-1.03874265176588
92.5,-1.074110534066451
92.75,-1.0499823435215618
93.0,-0.976956075206865
93.25,-0.8629116720997794
93.5,-0.7124820284141111
93.75,-0.5279159120628364
94.0,-0.3110403383915595
94.25,-0.0657867174012852
94.5,0.1993953305951191
94.75,0.4699216009882309
95.0,0.7248092454203929
95.25,0.9380666040097568
95.5,1.0817022374648466
95.75,1.1299588978228678
96.0,1.0640657497905686
96.25,0.8766055121911164
96.5,0.574564791375821
96.75,0.1802987643114004
97.0,-0.2700195958681975
97.25,-0.730435047447725
97.5,-1.15120432724843
97.75,-1.4857956211799068
98.0,-1.697677258594887
98.25,-1.7656509013980135
98.5,-1.6867117756613563
98.75,-1.4758684594654778
99.0,-1.162942010814639
99.25,-0.7869675138470914
99.5,-0.3893091767468076
99.75,-0.0068616760192851
100.0,0.3333187689464996
100.25,0.6169302636011776
100.5,0.8424093528476584
100.75,1.0181540618756273
101.0,1.157764359531382
101.25,1.2745058727178442
101.5,1.3763510396276564
101.75,1.4627872437555172
102.0,1.524143074919252
102.25,1.5435754362499916
102.5,1.50122537255716
102.75,1.3795383418357632
103.0,1.168473984752192
103.25,0.8693614228360897
103.5,0.4964764070586008
103.75,0.0759454473867727
104.0,-0.3578091612830853
104.25,-0.7673249558266396
104.5,-1.1179414440232651
104.75,-1.3830234095111054
105.0,-1.5475430591735588
105.25,-1.60940034658145
105.5,-1.578376356078592
105.75,-1.4731181810240164
106.0,-1.316930124612126
106.25,-1.1333184938212122
106.5,-0.9421837373238968
106.75,-0.7573085553088865
107.0,-0.585431696181757
107.25,-0.4268224896963609
107.5,-0.2769721841867668
107.75,-0.1288566219373244
108.0,0.0247805523940483
108.25,0.1895489915249002
108.5,0.3681617061129162
108.75,0.5598340524117699
109.0,0.7602032353958614
109.25,0.9615824652533416
109.5,1.1533976480090895
109.75,1.3227482162897932
110.0,1.4551372628830317
110.25,1.535478434362446
110.5,1.5494737853294251
110.75,1.4853624895970985
111.0,1.3358908069368822
111.25,1.100198564613005
111.5,0.7852143436654304
111.75,0.4061477284906561
112.0,-0.0142171520897553
112.25,-0.447501839428425
112.5,-0.8627853560961033
112.75,-1.2302616974073328
113.0,-1.524859314825724
113.25,-1.7291416176107717
113.5,-1.83493078571742
113.75,-1.8433592629399624
114.0,-1.763394651592139
114.25,-1.6092216091932925
114.5,-1.3971141294203249
114.75,-1.142529158665541
115.0,-0.8580715919143463
115.25,-0.5527404316857715
115.5,-0.2325263946025234
115.75,0.0979216345869835
116.0,0.4331206653825494
116.25,0.7647581155619734
116.5,1.0805184595796076
116.75,1.364159645580586
117.0,1.5969421224225837
117.25,1.7601604347681017
117.5,1.8382353049223168
117.75,1.821665537810336
118.0,1.7091522141218445
118.25,1.5083874250558325
118.5,1.2353001058365494
118.75,0.911897608364242
119.0,0.5631494986418899
119.25,0.2135573839987777
119.5,-0.1159018330266434
119.75,-0.4098866411509408
120.0,-0.659522516196863
120.25,-0.8619239658537843
120.5,-1.0186681621478986
120.75,-1.133694335117826
121.0,-1.21119222399481
121.25,-1.253994617292167
121.5,-1.262823129530428
121.75,-1.2364991752252
122.0,-1.1729838494145848
122.25,-1.070910165793321
122.5,-0.9311629172250728
122.75,-0.7580651082286388
123.0,-0.5598380378033117
123.25,-0.3481836331545892
123.5,-0.137046665519512
123.75,0.0591981811897959
124.0,0.2277648969512314
124.25,0.3592735617787902
124.5,0.4490129646039246
124.75,0.4974215719781175
125.0,0.5097282172686446
125.25,0.494864332288821
125.5,0.4638949541432934
125.75,0.4282888370532342
126.0,0.3983469187510284
126.25,0.3820385037877728
126.5,0.3843764728066936
126.75,0.4073273276498522
127.0,0.4501324784048949
127.25,0.5098424504377298
127.5,0.581852592605734
127.75,0.660278635885199
128.0,0.738108041740623
128.25,0.8071804422349141
128.5,0.8581531184242235
128.75,0.8806630069598083
129.0,0.8638835299713952
129.25,0.7975883366918539
129.5,0.6736906651800563
129.75,0.4880602129649339
130.0,0.2422736335565366
130.25,-0.0551254636136594
130.5,-0.3882633065962559
130.75,-0.7347494928748188
131.0,-1.0677293269080208
131.25,-1.358970767556294
131.5,-1.5825280057975872
131.75,-1.7183469264869284
132.0,-1.7551296685841489
132.25,-1.691880287541974
132.5,-1.5377987256416346
132.75,-1.310526913949559
133.0,-1.0331029169154309
133.25,-0.7302613063689306
133.5,-0.4248573455340779
133.75,-0.1351482068422306
134.0,0.1265594224221482
134.25,0.353738259829196
134.5,0.5441821425146701
134.75,0.6978288997763762
135.0,0.8146127772027403
135.25,0.8930686961862605
135.5,0.9301777892614542
135.75,0.922560182073344
136.0,0.868687611082233
136.25,0.7714254329088206
136.5,0.6400287462001242
136.75,0.490775652718192
137.0,0.3457236085901769
137.25,0.2295560080317734
137.5,0.1650254202596262
137.75,0.1679528601303344
138.0,0.2429784753986953
138.25,0.3811976571009705
138.5,0.5604524719440795
138.75,0.7484570218791533
139.0,0.9082575011179066
139.25,1.004934842427296
139.5,1.0121079561629978
139.75,0.9167903850516628
140.0,0.7215084240429533
140.25,0.4432261508533623
140.5,0.1093871730267535
140.75,-0.2479196391199386
141.0,-0.598214929809787
141.25,-0.9177714757010188
141.5,-1.1924327459261634
141.75,-1.4175359621112136
142.0,-1.5951627740351535
142.25,-1.7296783016508506
142.5,-1.8229990287729945
142.75,-1.871115470640795
143.0,-1.86305366044126
143.25,-1.7827727367122153
143.5,-1.6136433461069184
143.75,-1.3443634011438548
144.0,-0.9746644479692944
144.25,-0.5190941714474088
144.5,-0.0075660393580513
144.75,0.5178436865254157
145.0,1.0093951893968376
145.25,1.422116070916869
145.5,1.722206098614153
145.75,1.893351088875998
146.0,1.939310437008156
146.25,1.8820166827232483
146.5,1.7555324276576958
146.75,1.5972697418891812
147.0,1.4386129018155425
147.25,1.2972957660246638
147.5,1.173499743608822
147.75,1.0507389364253783
148.0,0.9014023475578448
148.25,0.6956276842414201
148.5,0.4112924965642138
148.75,0.0425595850094592
149.0,-0.3952949315442536
149.25,-0.8661715341228273
149.5,-1.3187141568796923
149.75,-1.696006111786432
150.0,-1.947201309712947
150.25,-2.0383760384249063
150.5,-1.9600254288220995
150.75,-1.7293984103193785
151.0,-1.3870791031462884
151.25,-0.9885840305542404
151.5,-0.5929195874351808
151.75,-0.2507461428493087
152.0,0.0051445260126184
152.25,0.1649221773494203
152.5,0.2413550717975911
152.75,0.2642818191308622
153.0,0.2714291729737599
153.25,0.2979148739407937
153.5,0.3670169927397678
153.75,0.4844020726303715
154.0,0.6370939151415105
154.25,0.7972686626729113
154.5,0.929779706608045
154.75,1.001436301485228
155.0,0.9896887741181516
155.25,0.8885863230968537
155.5,0.7106006145378758
155.75,0.4839560249171886
156.0,0.2462097678976895
156.25,0.0357122524807165
156.5,-0.1169581157654894
156.75,-0.1955481655252511
157.0,-0.2011780752840536
157.25,-0.1512735383487379
157.5,-0.0747661174215415
157.75,-0.0048108202475492
158.0,0.0291958591454505
158.25,0.0084226245225574
158.5,-0.0712881561361573
158.75,-0.1988426318742367
159.0,-0.3508310338605078
159.25,-0.4971574803613907
159.5,-0.6079743824532702
159.75,-0.6603107384620786
160.0,-0.6429408380161961
160.25,-0.5585145009859269
160.5,-0.4226320129615394
160.75,-0.2602331008373002
161.0,-0.1002237318194205
161.25,0.0304256645320762
161.5,0.1118592858467365
161.75,0.1347928436869521
162.0,0.1016889885163137
162.25,0.0256061987572274
162.5,-0.0728542553437529
162.75,-0.1697483625720002
163.0,-0.2422432524532144
163.25,-0.2724893341617074
163.5,-0.2502893827314478
163.75,-0.1742468563732226
164.0,-0.0513926642728415
164.25,0.1044462296306704
164.5,0.2751045430051376
164.75,0.440872451300692
165.0,0.5831743730720372
165.25,0.6867883267375308
165.5,0.7413978051378105
165.75,0.7424002466362889
166.0,0.6910009425969484
166.25,0.5936893139807661
166.5,0.4612289031790961
166.75,0.3073037694575202
167.0,0.1469646453436534
167.25,-0.0049826364416851
167.5,-0.1355032113217698
167.75,-0.2346312902510185
168.0,-0.2964071112533779
168.25,-0.3193445980543414
168.5,-0.3063665078585751
168.75,-0.2642070222146999
169.0,-0.2023553124349634
169.25,-0.1316849048399053
169.5,-0.0629680535236444
169.75,-0.0054988216442134
170.0,0.0339648159665025
170.25,0.0517815380298909
170.5,0.0474549811087244
170.75,0.0231354182815173
171.0,-0.0172804732664424
171.25,-0.0692490752285428
171.5,-0.1286357040084345
171.75,-0.1924920370738403
172.0,-0.2593775493587381
172.25,-0.3291453959703472
172.5,-0.402233995693913
172.75,-0.4786251227952109
173.0,-0.5567216249765178
173.25,-0.6324404528665344
173.5,-0.6987957504097126
173.75,-0.7461612923243454
174.0,-0.7632649087609211
174.25,-0.738805951138172
174.5,-0.6634347967386398
174.75,-0.5317263684053862
175.0,-0.3437459159225467
175.25,-0.1058584179901722
175.5,0.1694328869066865
175.75,0.4646436382509701
176.0,0.7592813413151506
176.25,1.03228180865648
176.5,1.2644582336224155
176.75,1.4405141782470747
177.0,1.550277304895873
177.25,1.5889968678078972
177.5,1.5567705553594775
177.75,1.4573697139615571
178.0,1.2968633319539888
178.25,1.082464094352042
178.5,0.8219252110662015
178.75,0.5236266183693707
179.0,0.1972526511120458
179.25,-0.1452551205307843
179.5,-0.4889231205390739
179.75,-0.8156127294483778
180.0,-1.1048633426551762
180.25,-1.3358010332533323
180.5,-1.4898995360933058
180.75,-1.554097363402368
181.0,-1.5235904564594125
181.25,-1.4035924714073846
181.5,-1.209506413290442
181.75,-0.9652588428906842
182.0,-0.6999465821439579
182.25,-0.4433435032954883
182.5,-0.2211137969379121
182.75,-0.0506991211949459
183.0,0.0612491341821358
183.25,0.119322787357249
183.5,0.1375701302985587
183.75,0.135833645228996
184.0,0.1349965095197643
184.25,0.1521737845374208
184.5,0.1969047850679902
184.75,0.269183780192309
185.0,0.359754224397548
185.25,0.4525802467898649
185.5,0.5289152701516958
185.75,0.5720249949674953
186.0,0.5714738798273095
186.25,0.5259842133488853
186.5,0.4442010860235232
186.75,0.3431698959858728
187.0,0.2448470190612007
187.25,0.1714027077464478
187.5,0.1403409577771701
187.75,0.1604976268193295
188.0,0.2297817739633079
188.25,0.3351442880034698
188.5,0.454780203647021
188.75,0.5621030381076387
189.0,0.6306716067232983
189.25,0.6390749215527596
189.5,0.5748192260435232
189.75,0.4364960866112404
190.0,0.2338836763432848
190.25,-0.0139396726073638
190.5,-0.2820015309816039
190.75,-0.543620561425693
191.0,-0.774524665622137
191.25,-0.9561293888341402
191.5,-1.0774310255042832
191.75,-1.1352937932070624
192.0,-1.1332600985193988
192.25,-1.0793130301958145
192.5,-0.9832104699051314
192.75,-0.8540557926477933
193.0,-0.6986675955358432
193.25,-0.5210876211379922
193.5,-0.3232736890148371
193.75,-0.1067279308397755
194.0,0.1254252106414614
194.25,0.3665202343751463
194.5,0.6051831911719794
194.75,0.8253519838381779
195.0,1.0076572707402358
195.25,1.1320209435466144
195.5,1.181028882716465
195.75,1.143417419743084
196.0,1.0169306553501554
196.25,0.8098832462386746
196.5,0.5409912336412943
196.75,0.2373689950490871
197.0,-0.0690354207326614
197.25,-0.345962192548799
197.5,-0.5654993511948764
