Time (s),Wave elevation (m)
0.0,2.7858439410395004
0.25,2.7858439410395004
0.5,2.9283560668800277
0.75,2.9949171820949205
1.0,2.983373250951568
1.25,2.8970098460946905
1.5,2.743904410944007
1.75,2.5356200734332326
2.0,2.285491889099025
2.25,2.0068152236676977
2.5,1.7112484051943382
2.75,1.4076891251765178
3.0,1.101787256886097
3.25,0.7961341663660843
3.5,0.4910427183130487
3.75,0.1857256480724071
4.0,-0.1203884325112432
4.25,-0.4264806932105429
4.5,-0.7295547656955459
4.75,-1.0242021097483671
5.0,-1.3029751800914455
5.25,-1.557302477128747
5.5,-1.7787702807717511
5.75,-1.9605184926198045
6.0,-2.098467089709693
6.25,-2.192111568002048
6.5,-2.2446974194845764
6.75,-2.2626932472556307
7.0,-2.2546107911040645
7.25,-2.229345428348447
7.5,-2.1943102982254707
7.75,-2.153692737431469
8.0,-2.1071620647670493
8.25,-2.0493009586784376
8.5,-1.9699264296955792
8.75,-1.85532689499398
9.0,-1.6902912229607725
9.25,-1.4606682671825613
9.5,-1.156094118003531
9.75,-0.7724764173379415
10.0,-0.3138396679990722
10.25,0.2067882482522797
10.5,0.7676406974192529
10.75,1.339660531126354
11.0,1.8889959628570845
11.25,2.3802564651285825
11.5,2.7801290328969626
11.75,3.060899459154942
12.0,3.203432000455733
12.25,3.199232265281706
12.5,3.0513412230547137
12.75,2.773964252165084
13.0,2.390904940511076
13.25,1.933024870905924
13.5,1.4350666510824606
13.75,0.9322427653518128
14.0,0.4570003376670387
14.25,0.0363234163915649
14.5,-0.3101600062484894
14.75,-0.5711229297230238
15.0,-0.7435264308579519
15.25,-0.8317620891981155
15.5,-0.8461582628639222
15.75,-0.8011146972433933
16.0,-0.7131418996002957
16.25,-0.5990522734360566
16.5,-0.4744881898454159
16.75,-0.3528914451725142
17.0,-0.2449342686737885
17.25,-0.1583587036219413
17.5,-0.0981200082393342
17.75,-0.0667069174975999
18.0,-0.064517626219622
18.25,-0.090200216189817
18.5,-0.1409108232730949
18.75,-0.2124908237511605
19.0,-0.299604534430956
19.25,-0.3959024904238396
19.5,-0.4942773736635455
19.75,-0.5872600228943724
20.0,-0.667566305921711
20.25,-0.7287603563759267
20.5,-0.7659561715620852
20.75,-0.7764481618793596
21.0,-0.7601501013546726
21.25,-0.7197353727354755
21.5,-0.6604089363094198
21.75,-0.5892977092465785
22.0,-0.5145116338758726
22.25,-0.4439908675980137
22.5,-0.3843032106189274
22.75,-0.3395800331461849
23.0,-0.3107724033046812
23.25,-0.2953708659901934
23.5,-0.2876669706684317
23.75,-0.2795517675944675
24.0,-0.2617591620129245
24.25,-0.2253846701700998
24.5,-0.1634561216584105
24.75,-0.072312175850396
25.0,0.0474380353366684
25.25,0.1905465932721773
25.5,0.3474386459981974
25.75,0.5051926681458221
26.0,0.6490752449881931
26.25,0.7644289118407781
26.5,0.8386525756104103
26.75,0.8629933555598699
27.0,0.8338901010931992
27.25,0.7536695669073104
27.5,0.6304872394202596
27.75,0.4775123103631267
28.0,0.3114638787724693
28.25,0.150696735045852
28.5,0.0130962591272991
28.75,-0.0859359396157381
29.0,-0.1351438025642754
29.25,-0.1285220830486168
29.5,-0.0657474792921165
29.75,0.0480811773643018
30.0,0.2033112048978743
30.25,0.3870479404107381
30.5,0.5846921232889585
30.75,0.7814681124660162
31.0,0.963729541401672
31.25,1.1198833307382992
31.5,1.2408502266699724
31.75,1.320066614011366
32.0,1.3531134632222572
32.25,1.337120354210128
32.5,1.2701254773236388
32.75,1.1505713098962589
33.0,0.9770810916684768
33.25,0.7485996715768142
33.5,0.4649046537171721
33.75,0.1274135541439096
34.0,-0.2598561967720591
34.25,-0.6893630982342427
34.5,-1.1493559772802735
34.75,-1.6236091526365029
35.0,-2.091708177573279
35.25,-2.529939455153289
35.5,-2.912748053058301
35.75,-3.214640333142082
36.0,-3.412335109815802
36.25,-3.4869202606379397
36.5,-3.425758346113602
36.75,-3.223907104035561
37.0,-2.8848755778438666
37.25,-2.4206162411134997
37.5,-1.8507463955801444
37.75,-1.2010852068140063
38.0,-0.5016731016665281
38.25,0.2155028768262894
38.5,0.918827891167654
38.75,1.5791793203187765
39.0,2.1716427761076984
39.25,2.67668118330976
39.5,3.080691023563648
39.75,3.375960420256827
40.0,3.5601166500484243
40.25,3.635206360344256
40.5,3.606583633352991
40.75,3.4817861587072376
41.0,3.2695591651792157
41.25,2.979144974833773
41.5,2.619900341725704
41.75,2.201242915571028
42.0,1.7328712432196864
42.25,1.2251576672799989
42.5,0.6895862177286038
42.75,0.1391012897068639
43.0,-0.4117522830173155
43.25,-0.9469839232830588
43.5,-1.4496463737863692
43.75,-1.9026454883466968
44.0,-2.289804543081285
44.25,-2.59707205472167
44.5,-2.813731045888425
44.75,-2.9334546321295814
45.0,-2.9550597402021093
45.25,-2.8828373275319223
45.5,-2.7263809647032566
45.75,-2.4998913533344957
46.0,-2.22099604490982
46.25,-1.9091841855262144
46.5,-1.584008276267615
46.75,-1.2632420765561554
47.0,-0.961200630768416
47.25,-0.6874217378652687
47.5,-0.4458773023950492
47.75,-0.2348299823479382
48.0,-0.0473802335926963
48.25,0.1273314753216977
48.5,0.3023837807375844
48.75,0.4909837102892227
49.0,0.7042687881791254
49.25,0.9492718766256236
49.5,1.227314084075045
49.75,1.5330529742474368
50.0,1.854344241193428
50.25,2.1729817334756785
50.5,2.466273649797776
50.75,2.709304893279745
51.0,2.877640973817845
51.25,2.950160667826396
51.5,2.91167335780435
51.75,2.754988714665864
52.0,2.48216180517898
52.25,2.104730536838729
52.5,1.6428837887119714
52.75,1.1236324858870097
53.0,0.5781847015147107
53.25,0.0388320036025409
53.5,-0.4642774584976984
53.75,-0.9060836523074856
54.0,-1.2689140183428436
54.25,-1.5438558358774706
54.5,-1.731040334840778
54.75,-1.8388205875287968
55.0,-1.8819718123401377
55.25,-1.879172154700712
55.5,-1.8501159279244583
55.75,-1.8126562059237767
56.0,-1.7803630052673962
56.25,-1.760818544262961
56.5,-1.754861609640204
56.75,-1.7568548992185553
57.0,-1.755902623434657
57.25,-1.7378121775462378
57.5,-1.6874928767951851
57.75,-1.5914311286275324
58.0,-1.4398823167716623
58.25,-1.2284740369485645
58.5,-0.959013886854022
58.75,-0.6394217479811756
59.0,-0.2828411478799315
59.25,0.0938944121608285
59.5,0.4721752288542932
59.75,0.8336010129891428
60.0,1.161738411748747
60.25,1.4434078327158373
60.5,1.669352605629567
60.75,1.8342604373873743
61.0,1.9362247941120936
61.25,1.9758317017689573
61.5,1.9551183318831815
61.75,1.876662833836112
62.0,1.7430276748443023
62.25,1.556697572534657
62.5,1.320542176641467
62.75,1.0387128167088155
63.0,0.7177740509055988
63.25,0.3677951607462001
63.5,0.0030998155319712
63.75,-0.3575983674781409
64.0,-0.6918625042362653
64.25,-0.9750621271876904
64.5,-1.1826754745307777
64.75,-1.2931236313249763
65.0,-1.29077201226222
65.25,-1.1686603089669303
65.5,-0.9305129212938102
65.75,-0.5916441063576021
66.0,-0.1785004291978515
66.25,0.2732384817313545
66.5,0.7218762211744493
66.75,1.123909424320231
67.0,1.4387442100307362
67.25,1.6333309619260614
67.5,1.6861079213104309
67.75,1.5897096109251747
68.0,1.3520421889545038
68.25,0.9955358904632774
68.5,0.5546263673182471
68.75,0.0717578371547627
69.0,-0.4075934006959824
69.25,-0.8402367424224473
69.5,-1.1902353823068186
69.75,-1.432877136077444
70.0,-1.5571346316692234
70.25,-1.5663082084594806
70.5,-1.4767948310427612
70.75,-1.3151839059883628
71.0,-1.114109202071622
71.25,-0.907452447201858
71.5,-0.7255749932936356
71.75,-0.5912381253085184
72.0,-0.5167632064067249
72.25,-0.5027965901449007
72.5,-0.5388088661734078
72.75,-0.6052082025705587
73.0,-0.6767196732544014
73.25,-0.7265091854493249
73.5,-0.7304361375494727
73.75,-0.670815478837336
74.0,-0.5391560630104631
74.25,-0.3375035818342232
74.5,-0.0782276575251375
74.75,0.2176782208541421
75.0,0.5235022895490884
75.25,0.8104779983469425
75.5,1.0516617460105069
75.75,1.225467261645344
76.0,1.3183667145196392
76.25,1.3264054188926375
76.5,1.2553604544207762
76.75,1.1195749741894312
77.0,0.939689004811984
77.25,0.7396366317097651
77.5,0.5433680362495374
77.75,0.3717721724095565
78.0,0.2402223272009209
78.25,0.157053465318989
78.5,0.123126784894465
78.75,0.1324682632710647
79.0,0.1738103692958222
79.25,0.2327429701090978
79.5,0.2941078660949941
79.75,0.3442597460248202
80.0,0.3728634081816485
80.25,0.37399251493763
80.5,0.3464215218669288
80.75,0.293138262571797
81.0,0.2202279686761622
81.25,0.1353712271818518
81.5,0.0462453635657579
81.75,-0.0408844385896211
82.0,-0.1221484405903277
82.25,-0.1964816027338561
82.5,-0.265418622073912
82.75,-0.3323450620303783
83.0,-0.4013690942597321
83.25,-0.4760411849893335
83.5,-0.5581709733418991
83.75,-0.6469691147404343
84.0,-0.7386817008397678
84.25,-0.8267969465471365
84.5,-0.90280336452817
84.75,-0.9573825435508072
85.0,-0.9818437508880112
85.25,-0.9695641272031568
85.5,-0.9171939785162436
85.75,-0.8254218843871521
86.0,-0.699162964942415
86.25,-0.5471243558498698
86.5,-0.3808000575472751
86.75,-0.2130372272650071
87.0,-0.0563835751102587
87.25,0.078539571951979
87.5,0.1843968819437861
87.75,0.2580295394563472
88.0,0.3007452643903522
88.25,0.3179661517927842
88.5,0.3182879394348896
88.75,0.3120907241715337
89.0,0.3099059077980687
89.25,0.3207779930478979
89.5,0.3508583283279773
89.75,0.4024319276752554
90.0,0.4735140438646167
90.25,0.5580702410817322
90.5,0.6468247065653321
90.75,0.7285393733427328
91.0,0.7915826129107448
91.25,0.825569285049866
91.5,0.8228481499119654
91.75,0.7796378056310013
92.0,0.696663800371936
92.25,0.5792192635716858
92.5,0.4366490096180707
92.75,0.2813316827625115
93.0,0.1272961968116319
93.25,-0.0113501440700946
93.5,-0.1219882423190706
93.75,-0.1948643189043724
94.0,-0.2241255083182688
94.25,-0.2084111031139056
94.5,-0.150955194434778
94.75,-0.0592160744510201
95.0,0.0558993947559509
95.25,0.1811084291504272
95.5,0.3019911085236692
95.75,0.4042597539523468
96.0,0.474935504230128
96.25,0.5033341102790702
96.5,0.4817966009941508
96.75,0.4061366926731615
97.0,0.2758102618406309
97.25,0.0938385758254491
97.5,-0.1334664232896971
97.75,-0.3969204940836053
98.0,-0.684978476975958
98.25,-0.9842988026226394
98.5,-1.2803357142509837
98.75,-1.5579481781936255
99.0,-1.802025345434855
99.25,-1.9981333172881344
99.5,-2.1331856866523364
99.75,-2.196131201484814
100.0,-2.1786376909734546
100.25,-2.07573500187382
100.5,-1.886364657431712
100.75,-1.613773878379695
101.0,-1.265689546396443
101.25,-0.8542156023243014
101.5,-0.395415725342992
101.75,0.0914292605247842
102.0,0.5848657591648065
102.25,1.0625536640754758
102.5,1.5027007511446042
102.75,1.8855251067922267
103.0,2.1946110891907065
103.25,2.4180249664317977
103.5,2.549073371948398
103.75,2.586620215501616
104.0,2.534922651005666
104.25,2.402999168834088
104.5,2.2035965143891465
104.75,1.9518700079154996
105.0,1.6639273484982458
105.25,1.3554037827035414
105.5,1.0402333411748514
105.75,0.7297560973294812
106.0,0.4322574018473891
106.25,0.1529768923191008
106.5,-0.1054398971696354
106.75,-0.3421376162060489
107.0,-0.5570375198702
107.25,-0.7497906253762459
107.5,-0.9188834377871042
107.75,-1.0610646564616453
108.0,-1.1712180798490035
108.25,-1.2427427620800728
108.5,-1.2684243817195384
108.75,-1.2417020873300564
109.0,-1.1581640665552897
109.25,-1.017053441953299
109.5,-0.8225424046194573
109.75,-0.5845418967684451
110.0,-0.3188574544889317
110.25,-0.0465751635993573
110.5,0.2073431535938276
110.75,0.4161710657045178
111.0,0.5540486478553073
111.25,0.5988627012072696
111.5,0.5350501259268307
111.75,0.355981720340213
112.0,0.0656092992346242
112.25,-0.3208742507844646
112.5,-0.7775112200332489
112.75,-1.2692166662782172
113.0,-1.754469762110911
113.25,-2.188826364953215
113.5,-2.5289184790471544
113.75,-2.7365404956106243
114.0,-2.7824008908050173
114.25,-2.649144575224427
114.5,-2.3333226319936045
114.75,-1.8460945708067689
115.0,-1.2125808415528725
115.25,-0.4699247483672026
115.5,0.3357432333944669
115.75,1.1531345679871472
116.0,1.9300447238947431
116.25,2.617594043626688
116.5,3.1740647862723708
116.75,3.567985643857364
117.0,3.7802038195757457
117.25,3.8047971564221688
117.5,3.648801413967032
117.75,3.3308467345350565
118.0,2.8788999243968605
118.25,2.3273852893482547
118.5,1.7139998710898463
118.75,1.076546563496506
119.0,0.4500823215725835
119.25,-0.1353763647857258
119.5,-0.6564245575040206
119.75,-1.0970378638203062
120.0,-1.448549825656011
120.25,-1.708929662837784
120.5,-1.8815183243181413
120.75,-1.9734256583337195
121.0,-1.9938120459007105
121.25,-1.9522734276135536
121.5,-1.8575210679864824
121.75,-1.716500484621266
122.0,-1.534033166135714
122.25,-1.3129965345675476
122.5,-1.0549891144772918
122.75,-0.7613660464074299
123.0,-0.4344813235480864
123.25,-0.0789427104325023
123.5,0.2973231115134165
123.75,0.6823823811618477
124.0,1.060132034525701
124.25,1.4107542033896048
124.5,1.7118055488762367
124.75,1.9398798061884808
125.0,2.0727039237900047
125.25,2.0914612697684336
125.5,1.9830883753640571
125.75,1.742271788241099
126.0,1.3728833356815346
126.25,0.8886364602416912
126.5,0.3128203197740646
126.75,-0.3229348952158904
127.0,-0.9807988398126256
127.25,-1.6196167144340674
127.5,-2.198253569971769
127.75,-2.679072845995755
128.0,-3.0311834211569275
128.25,-3.2331008795558738
128.5,-3.2745236292390434
128.75,-3.157018031639653
129.0,-2.893528583495591
129.25,-2.506764994671671
129.5,-2.0266508282748643
129.75,-1.487131048122731
130.0,-0.922713254686298
130.25,-0.365148701719875
130.5,0.1593606497725179
130.75,0.6321120456254974
131.0,1.042802092486221
131.25,1.3893075591768278
131.5,1.6764232157420345
131.75,1.91376844565572
132.0,2.113180814419633
132.25,2.285977860774822
132.5,2.44047949238018
132.75,2.580141044974912
133.0,2.702557226827672
133.25,2.7994723464139737
133.5,2.857789798466477
133.75,2.861433559306765
134.0,2.793795820149111
134.25,2.6404241268819124
134.5,2.3915693206415103
134.75,2.044236073039381
135.0,1.6034473452354403
135.25,1.0825422960088378
135.5,0.5024583809628972
135.75,-0.1099159643228242
136.0,-0.7241104043393326
136.25,-1.3088653869149085
136.5,-1.8350021277901007
136.75,-2.2780231354897484
137.0,-2.620142175928394
137.25,-2.8515263505292583
137.5,-2.970641775135751
137.75,-2.9837121335506978
138.0,-2.903409531493688
138.25,-2.7469848857209787
138.5,-2.5340998020962173
138.75,-2.284638123031892
139.0,-2.016753517787562
139.25,-1.7453555736762347
139.5,-1.48116100439501
139.75,-1.230351461785373
140.0,-0.9947980296395944
140.25,-0.7727461490110581
140.5,-0.559811528274194
140.75,-0.3501212570020462
141.0,-0.1374440109984895
141.25,0.0838160390445417
141.5,0.3178431041439943
141.75,0.566885106041993
142.0,0.8309712907997963
142.25,1.107832132970006
142.5,1.3929667272923587
142.75,1.679804540612624
143.0,1.9599236268719524
143.25,2.223310626459201
143.5,2.4586721022044125
143.75,2.6538250775156302
144.0,2.796201566660144
144.25,2.873494525573544
144.5,2.87445129304782
144.75,2.7897887143391182
145.0,2.6131677988622664
145.25,2.3421324852883427
145.5,1.9788944494136649
145.75,1.53084006152739
146.0,1.0106500916698409
146.25,0.4359576209438226
146.5,-0.1714787797689727
146.75,-0.7870480557597043
147.0,-1.3849050142924524
147.25,-1.939779900100079
147.5,-2.4287898393928264
147.75,-2.83305213947582
148.0,-3.1389163788271315
148.25,-3.3386755562216908
148.5,-3.430680905846153
148.75,-3.41886150534638
149.0,-3.31172754068773
149.25,-3.1210036107173758
149.5,-2.8600856284004026
149.75,-2.5425344856231904
150.0,-2.1808085463364324
150.25,-1.785396679981144
150.5,-1.3644498363070336
150.75,-0.9239315483832262
151.0,-0.4682278220710149
151.25,-0.001086589347288
151.5,0.4732932178569891
151.75,0.9492254120634408
152.0,1.4187471307558184
152.25,1.8712322999820212
152.5,2.2935023004981416
152.75,2.6704519889356955
153.0,2.986130031122835
153.25,3.225142053492003
153.5,3.374193779606287
153.75,3.4235665261166925
154.0,3.36832262033914
154.25,3.209072457693261
154.5,2.9521928082655413
154.75,2.609459004779795
155.0,2.19713116023178
155.25,1.734605501494885
155.5,1.2427963901392554
155.75,0.7424453610634537
156.0,0.2525568570883386
156.25,-0.2108633994728021
156.5,-0.6356381126993232
156.75,-1.013749207550103
157.0,-1.3411714296347506
157.25,-1.6172757891056588
157.5,-1.8439228959735363
157.75,-2.0244000992021243
158.0,-2.162367217515165
158.25,-2.260963088854088
158.5,-2.32219202920858
158.75,-2.346661191426945
159.0,-2.333684189606096
159.25,-2.2817113366967474
159.5,-2.189000083252908
159.75,-2.0544068708643057
160.0,-1.878167454719692
160.25,-1.662537929431872
160.5,-1.412191617293
160.75,-1.1343037036423338
161.0,-0.8383004007929025
161.25,-0.5352960339461716
161.5,-0.2372834053632783
161.75,0.0438253152180633
162.0,0.2971919118915511
162.25,0.5139620310468381
162.5,0.6879869588793435
162.75,0.8162783533283045
163.0,0.8991517714520197
163.25,0.9400536197103936
163.5,0.9451037635920108
163.75,0.9224176589116384
164.0,0.8812937110981796
164.25,0.8313612870501387
164.5,0.7817817526243346
164.75,0.7405801638062
165.0,0.7141613994015152
165.25,0.7070353217385443
165.5,0.7217453356681138
165.75,0.758967848594374
166.0,0.8177304027394308
166.25,0.8956863483303293
166.5,0.9893850741352423
166.75,1.0944885737221544
167.0,1.2059054446975948
167.25,1.3178388768659532
167.5,1.423771468850297
167.75,1.51643221922407
168.0,1.5878055618884337
168.25,1.629245711572674
168.5,1.631750319974026
168.75,1.58642593953742
169.0,1.4851465076008363
169.25,1.3213692638283263
169.5,1.091035751381582
169.75,0.7934549072762207
170.0,0.4320464221915923
170.25,0.014819945772955
170.5,-0.4455183708461232
170.75,-0.931906414961359
171.0,-1.4237390655824074
171.25,-1.898120557576972
171.5,-2.3314633499572084
171.75,-2.701287692850352
172.0,-2.9880384350201847
172.25,-3.176719828735766
172.5,-3.2581590427534755
172.75,-3.2297451191205497
173.0,-3.0955486997441013
173.25,-2.865801936604786
173.5,-2.555797802421416
173.75,-2.1843423623479588
174.0,-1.771951510070546
174.25,-1.3390161908627232
174.5,-0.9041616138616296
174.75,-0.4829952272810916
175.0,-0.0873789736125474
175.25,0.2747182516345932
175.5,0.5988203074690148
175.75,0.8831116254917558
176.0,1.1273547669387618
176.25,1.3317763070692092
176.5,1.496141193981466
176.75,1.6192006101177951
177.0,1.6986311324410206
177.25,1.731493570988004
177.5,1.7151422020465512
177.75,1.6484250806306209
178.0,1.532949064946487
178.25,1.3741514266837729
178.5,1.181930604495954
178.75,0.9706423722088976
179.0,0.7583580607359236
179.25,0.5653958482098834
179.5,0.4122573410286136
179.75,0.3172105474994093
180.0,0.2938387239280437
180.25,0.348908218806689
180.5,0.4808895115879052
180.75,0.6793942186507506
181.0,0.9256752596324528
181.25,1.1941932762326808
181.5,1.4551005398599883
181.75,1.677356813473004
182.0,1.8320913528767069
182.25,1.8957780078528932
182.5,1.852805170252331
182.75,1.6970988021502669
183.0,1.432585126757464
183.25,1.072441658254334
183.5,0.6372572642578996
183.75,0.1523779372474509
184.0,-0.3551691965573744
184.25,-0.8597237904000882
184.5,-1.339573193667246
184.75,-1.7787058515931249
185.0,-2.1675112045173406
185.25,-2.502370403018156
185.5,-2.784261814141175
185.75,-3.016665920755184
186.0,-3.203169885989343
186.25,-3.345223479365576
186.5,-3.4404758048631443
186.75,-3.4820284780441866
187.0,-3.458789221614296
187.25,-3.3569235421634915
187.5,-3.1622105974915025
187.75,-2.862943537067447
188.0,-2.452902164019993
188.25,-1.933886593374476
188.5,-1.3173433748747572
188.75,-0.6247361815396738
189.0,0.1135050069345125
189.25,0.8604061261618755
189.5,1.5759751255213483
189.75,2.2213799864656125
190.0,2.7632053514097046
190.25,3.1771772323078533
190.5,3.450800686670517
190.75,3.584497724405806
191.0,3.591042700729606
191.25,3.493339736972096
191.5,3.3208344335306195
191.75,3.105062453201413
192.0,2.8749774469167035
192.25,2.652747273794232
192.5,2.4506512959569786
192.75,2.2695589130024816
193.0,2.0992414374294714
193.25,1.9204987508673956
193.5,1.7088088292831087
193.75,1.4389732015011092
194.0,1.090070636272246
194.25,0.6499701647188927
194.5,0.118703693848132
194.75,-0.4898476651329161
195.0,-1.148262181703651
195.25,-1.817903028117985
195.5,-2.452988537837093
195.75,-3.0058764245654097
196.0,-3.432846621149317
196.25,-3.69958454496642
196.5,-3.7855983249376735
196.75,-3.686945898038805
197.0,-3.416880691356292
197.25,-3.0043143305761664
197.5,-2.4902995744405088
197.75,-1.9230124064983247
198.0,-1.351919180042508
198.25,-0.8219233262564968
198.5,-0.3682812796212236
