Time (s),Wave elevation (m)
0.0,0.6428870633168495
0.25,0.6428870633168495
0.5,0.6824251522585115
0.75,0.6916020475924746
1.0,0.6706096253224997
1.25,0.623047396150828
1.5,0.5549147705370605
1.75,0.4731198214698557
2.0,0.3839588419841673
2.25,0.2920011552133843
2.5,0.1996655309797247
2.75,0.1075472083327759
3.0,0.0153189466799073
3.25,-0.07714270082634
3.5,-0.1688126543550932
3.75,-0.2570890289037514
4.0,-0.3380385451507363
4.25,-0.4072452626792648
4.5,-0.4609856612533527
4.75,-0.4973321625038756
5.0,-0.5167910261052311
5.25,-0.5222108942369136
5.5,-0.5179186019750835
5.75,-0.5082848692850884
6.0,-0.4961205046730549
6.25,-0.4813922841772962
6.5,-0.4606954929829829
6.75,-0.4277358816593929
7.0,-0.3748043404436913
7.25,-0.294945415996875
7.5,-0.1843040815263182
7.75,-0.0440461185396486
8.0,0.1186851607944439
8.25,0.2911022946947731
8.5,0.4564208848743648
8.75,0.5965262772896307
9.0,0.6951129416015417
9.25,0.7406271883921314
9.5,0.7283815125966285
9.75,0.661395939989774
10.0,0.5498098017403625
10.25,0.4090236710126934
10.5,0.2569983440201898
10.75,0.1112937218353545
11.0,-0.0135560234952344
11.25,-0.1078574757959854
11.5,-0.1675091169990303
11.75,-0.1936893416790712
12.0,-0.1917071052335642
12.25,-0.1693843022254373
12.5,-0.135374855628819
12.75,-0.0977589289481202
13.0,-0.0631133475989104
13.25,-0.0360984152891205
13.5,-0.0194647690751132
13.75,-0.0143065976460398
14.0,-0.0203822833456232
14.25,-0.0363793502547319
14.5,-0.0600882719621131
14.75,-0.0885324859807326
15.0,-0.118148134144873
15.25,-0.1451000987999915
15.5,-0.1657645062399605
15.75,-0.1773240910318021
16.0,-0.1783443524132937
16.25,-0.1691574003351126
16.5,-0.1518972630470234
16.75,-0.1301066703906035
17.0,-0.1079520289514334
17.25,-0.0892063796249258
17.5,-0.0762505218317811
17.75,-0.0693683449302915
18.0,-0.0665594647763104
18.25,-0.0639692561901067
18.5,-0.0568736537604705
18.75,-0.0409977050539922
19.0,-0.0138382258183074
19.25,0.024364327296346
19.5,0.0702897961658968
19.75,0.1179725970206721
20.0,0.1599470846966386
20.25,0.1888582791719232
20.5,0.1991630889556546
20.75,0.1885110904470551
21.0,0.1584622845963973
21.25,0.1143556627087755
21.5,0.064346926192334
21.75,0.0178335091553888
22.0,-0.0163713027763822
22.25,-0.0317021412864004
22.5,-0.0249828482159486
22.75,0.0031746868567301
23.0,0.0487449950372426
23.25,0.1052807026020654
23.5,0.1652294033633692
23.75,0.2212324762692571
24.0,0.2671056276555315
24.25,0.2983218420797791
24.5,0.3119789632900739
24.75,0.3063890314393319
25.0,0.2805308267028648
25.25,0.2336323332008205
25.5,0.165090649232737
25.75,0.0748120042764059
26.0,-0.0360986978241551
26.25,-0.1645058439807351
26.5,-0.3045549306561723
26.75,-0.447412351624127
27.0,-0.5816316737653636
27.25,-0.6941970700522944
27.5,-0.7721226701728675
27.75,-0.8043355390747191
28.0,-0.7834794627462561
28.25,-0.7072707539185805
28.5,-0.5791182854825414
28.75,-0.4078684258245966
29.0,-0.2067155394871005
29.25,0.0085126916847001
29.5,0.2213676387159521
29.75,0.4167199256593636
30.0,0.5822974198808533
30.25,0.7095995083510993
30.5,0.7941144115862164
30.75,0.8349176383688096
31.0,0.8338491515984302
31.25,0.7945293334870991
31.5,0.7214695551758883
31.75,0.6194686860084015
32.0,0.4933825250136698
32.25,0.3482370947676296
32.5,0.1895579105171951
32.75,0.0237286005994691
33.0,-0.1418143324996857
33.25,-0.2986989531798531
33.5,-0.4381119663786048
33.75,-0.5516315508815941
34.0,-0.6322643776287051
34.25,-0.6754832944085102
34.5,-0.6800368751482198
34.75,-0.6483271349193371
35.0,-0.586223668429197
35.25,-0.5022882619088981
35.5,-0.4065035235378284
35.75,-0.3087085846480949
36.0,-0.2170214177392003
36.25,-0.136552751206693
36.5,-0.0686816301039004
36.75,-0.011069366637338
37.0,0.0415490442267142
37.25,0.0959144872618568
37.5,0.158398925664249
37.75,0.2331338042993541
38.0,0.3205127827721444
38.25,0.4164204612913629
38.5,0.5124095024637737
38.75,0.5968608065726836
39.0,0.6569516863342841
39.25,0.6810701984686675
39.5,0.6611935483521859
39.75,0.5947267693218572
40.0,0.4853864005253434
40.25,0.3428995834240066
40.5,0.1815351959071672
40.75,0.0177371446399336
41.0,-0.1326672684290616
41.25,-0.257107960057912
41.5,-0.3482101137227466
41.75,-0.4046283418259923
42.0,-0.4306198575271953
42.25,-0.4344822500380876
42.5,-0.4262363077504171
42.75,-0.4151002895568838
43.0,-0.4073387077262668
43.25,-0.4049669106226569
43.5,-0.4055775621333171
43.75,-0.4032799007725437
44.0,-0.3904759449786439
44.25,-0.3600058223597028
44.5,-0.3071239916327441
44.75,-0.2308345467335942
45.0,-0.134296680960201
45.25,-0.0242601898516284
45.5,0.0902616059672916
45.75,0.1996936879699762
46.0,0.2955211728676934
46.25,0.3714375870401656
46.5,0.4237940000901127
46.75,0.4513470817044672
47.0,0.4545168710887562
47.25,0.4345037320309269
47.5,0.3926371388811883
47.75,0.3302290935210241
48.0,0.2490114019417983
48.25,0.1520071505859906
48.5,0.0444937607764969
48.75,-0.0653784586213471
49.0,-0.1667053994383935
49.25,-0.2469015415056421
49.5,-0.2936713440381741
49.75,-0.2975352278694976
50.0,-0.2543389698023902
50.25,-0.1670835422987775
50.5,-0.0464944650979344
50.75,0.0900011209017243
51.0,0.2208582590471328
51.25,0.324137778213965
51.5,0.3816326550340937
51.75,0.3825046169280673
52.0,0.3255930289773167
52.25,0.2198204580258454
52.5,0.0825338187727526
52.75,-0.063909865108635
53.0,-0.1965922568213687
53.25,-0.296545455056872
53.5,-0.3523303150970647
53.75,-0.3618961930497598
54.0,-0.3323357728121466
54.25,-0.277639594333551
54.5,-0.2150191305660044
54.75,-0.1606921190321079
55.0,-0.1261311812824632
55.25,-0.1156424134669333
55.5,-0.1258002967071451
55.75,-0.1468051438089311
56.0,-0.16536399870222
56.25,-0.1683394792650756
56.5,-0.1462484312658058
56.75,-0.0957585089646115
57.0,-0.0206033428920182
57.25,0.0692574611212969
57.5,0.1599729276452944
57.75,0.2370146041708188
58.0,0.2884641762537168
58.25,0.3075844144689077
58.5,0.2940916783025568
58.75,0.2538902797144083
59.0,0.1974135243682151
59.25,0.1370454239161776
59.5,0.0842914945453135
59.75,0.0473851122004721
60.0,0.0298627118023975
60.25,0.0303650940544556
60.5,0.0436004100584673
60.75,0.0621216721275696
61.0,0.0783977281697513
61.25,0.0866291970531226
61.5,0.0838772357127136
61.75,0.0702930518354842
62.0,0.0484947271719592
62.25,0.0223637396635992
62.5,-0.0043319107041046
62.75,-0.0290684323819749
63.0,-0.05113643746687
63.25,-0.0715232183208004
63.5,-0.0921921200841524
63.75,-0.1150211038125113
64.0,-0.1407561516033628
64.25,-0.1683221298578219
64.5,-0.194721465871425
64.75,-0.2155741305388875
65.0,-0.2261623826273346
65.25,-0.2226941157870098
65.5,-0.2034305273609485
65.75,-0.1693549328070333
66.0,-0.1241801353585022
66.25,-0.0736679877813212
66.5,-0.0244184613129553
66.75,0.0175726039650068
67.0,0.0482250620890957
67.25,0.0662251489825384
67.5,0.0732020707974604
67.75,0.0731879368311781
68.0,0.0714982616120802
68.25,0.0733133154843661
68.5,0.0823116374655885
68.75,0.0996899232495156
69.0,0.12380472429651
69.25,0.1505174963747723
69.5,0.174154726694482
69.75,0.1888507377891964
70.0,0.1899559222509005
70.25,0.1751853913805759
70.5,0.1452507841722118
70.75,0.1038418681385161
71.0,0.0569730161902176
71.25,0.0118472845375097
71.5,-0.0245128861149527
71.75,-0.0465831769205511
72.0,-0.0513454890884124
72.25,-0.0388089752175905
72.5,-0.011976491737383
72.75,0.0236976407164965
73.0,0.061220939978406
73.25,0.0931566738213186
73.5,0.112700401182108
73.75,0.114574165761429
74.0,0.0956334067029806
74.25,0.0551508382771537
74.5,-0.0051975049801536
74.75,-0.0815787842782573
75.0,-0.1684032111342756
75.25,-0.2588076369420039
75.5,-0.3451776936532281
75.75,-0.4196906403413593
76.0,-0.4748800064438356
76.25,-0.5042261675546299
76.5,-0.5027625440720068
76.75,-0.4676598302394228
77.0,-0.3987200840460586
77.25,-0.2986903620060812
77.5,-0.1733024231528504
77.75,-0.0309670933555375
78.0,0.1179010492169384
78.25,0.2618881975668407
78.5,0.3898051300337424
78.75,0.4919624647340299
79.0,0.5612985224416872
79.25,0.5941677280386303
79.5,0.5906450072156885
79.75,0.5542836556440448
80.0,0.4913656979828786
80.25,0.4097838729197269
80.5,0.3177705894740025
80.75,0.2227226527660597
81.0,0.1303508321302957
81.25,0.0443116277248972
81.5,-0.0336316438276005
81.75,-0.1029965389347249
82.0,-0.1637074611886886
82.25,-0.2152195195113496
82.5,-0.25590907363852
82.75,-0.2829418133239993
83.0,-0.2927136239162148
83.25,-0.281810460211128
83.5,-0.2482850931043052
83.75,-0.1929374190859691
84.0,-0.1202413171348488
84.25,-0.0386011523847232
84.5,0.0402574904741365
84.75,0.1027773323167255
85.0,0.1357507550597189
85.25,0.1288247943924425
85.5,0.0768476974511929
85.75,-0.0184427115372268
86.0,-0.1477997939031115
86.25,-0.2951465262738864
86.5,-0.4395383322907426
86.75,-0.5581443318459189
87.0,-0.6297698494227554
87.25,-0.638318375193891
87.5,-0.5755806214256975
87.75,-0.4428458945990375
88.0,-0.2510362722582778
88.25,-0.0193265711393236
88.5,0.2275189052729188
88.75,0.4626402993835802
89.0,0.6608205543130524
89.25,0.8018586869205746
89.5,0.8730557196743508
89.75,0.8704672281815913
90.0,0.7988041125934235
90.25,0.670097222446378
90.5,0.5014386857026697
90.75,0.3122402219479848
91.0,0.1214890455237188
91.25,-0.0545645891088805
91.5,-0.2039715902752532
91.75,-0.3197445407156032
92.0,-0.3996317677444094
92.25,-0.4451754221853771
92.5,-0.4603330860284789
92.75,-0.4499924329378121
93.0,-0.418695460802942
93.25,-0.3698192880427626
93.5,-0.3053494407489046
93.75,-0.2262496765983584
94.0,-0.1333030021678111
94.25,-0.0281943074576937
94.5,0.0854551416836224
94.75,0.201394971852099
95.0,0.310632533751597
95.25,0.40202854457561
95.5,0.4635866731992199
95.75,0.4842680990669431
96.0,0.4560281784816721
96.25,0.3756880766533353
96.5,0.2462420534467802
96.75,0.0772708989906
97.0,-0.1157226839435133
97.25,-0.3130435917633105
97.5,-0.49337328310647
97.75,-0.6367695519342458
98.0,-0.7275759679692371
98.25,-0.756707529170577
98.5,-0.7228764752834385
98.75,-0.6325150540566333
99.0,-0.4984037189205595
99.25,-0.3372717916487534
99.5,-0.1668467900343461
99.75,-0.0029407182939795
100.0,0.1428509009770712
100.25,0.2643986844005048
100.5,0.3610325797918536
100.75,0.4363517408038402
101.0,0.4961847255134496
101.25,0.5462168025933617
101.5,0.5898647312689957
101.75,0.6269088187523643
102.0,0.6532041749653937
102.25,0.6615323298214252
102.5,0.6433823025244971
102.75,0.5912307179296127
103.0,0.5007745648937967
103.25,0.3725834669297526
103.5,0.2127756030251146
103.75,0.0325480488800454
104.0,-0.1533467834070364
104.25,-0.3288535524971311
104.5,-0.4791177617242565
104.75,-0.5927243183619022
105.0,-0.6632327396458109
105.25,-0.6897430056777643
105.5,-0.676447009747968
105.75,-0.6313363632960068
106.0,-0.564398624833768
106.25,-0.4857079259233768
106.5,-0.4037930302816702
106.75,-0.3245608094180942
107.0,-0.2508992983636103
107.25,-0.1829239241555833
107.5,-0.1187023646514715
107.75,-0.0552242665445677
108.0,0.0106202367403063
108.25,0.0812352820821001
108.5,0.1577835883341069
108.75,0.2399288796050443
109.0,0.3258013865982261
109.25,0.4121067708228608
109.5,0.4943132777181812
109.75,0.5668920926956257
110.0,0.6236302555212994
110.25,0.6580621861553341
110.5,0.6640601937126108
110.75,0.6365839241130422
111.0,0.5725246315443782
111.25,0.4715136705484307
111.5,0.3365204329994702
111.75,0.1740633122102812
112.0,-0.0060930651813236
112.25,-0.1917865026121821
112.5,-0.3697651526126156
112.75,-0.5272550131745711
113.0,-0.6535111349253101
113.25,-0.741060693261759
113.5,-0.7863989081646087
113.75,-0.7900111126885553
114.0,-0.7557405649680599
114.25,-0.6896664039399826
114.5,-0.5987631983229965
114.75,-0.4896553537138033
115.0,-0.3677449679632912
115.25,-0.2368887564367592
115.5,-0.0996541691153672
115.75,0.0419664148229929
116.0,0.1856231423068069
116.25,0.3277534780979885
116.5,0.4630793398198316
116.75,0.5846398481059656
117.0,0.6844037667525359
117.25,0.7543544720434718
117.5,0.7878151306809931
117.75,0.7807138019187156
118.0,0.732493806052219
118.25,0.6464517535953568
118.5,0.529414331072807
118.75,0.3908132607275322
119.0,0.2413497851322386
119.25,0.0915245931423333
119.5,-0.0496722141542756
119.75,-0.1756657033504032
120.0,-0.2826525069415127
120.25,-0.3693959853659075
120.5,-0.4365720694919565
120.75,-0.4858690007647827
121.0,-0.5190823817120613
121.25,-0.5374262645537858
121.5,-0.5412099126558978
121.75,-0.5299282179536571
122.0,-0.502707364034822
122.25,-0.4589614996257092
122.5,-0.3990698216678884
122.75,-0.3248850463837023
123.0,-0.2399305876299907
123.25,-0.1492215570662525
123.5,-0.058734285222648
123.75,0.025370649081341
124.0,0.0976135272648134
124.25,0.1539743836194814
124.5,0.1924341276873961
124.75,0.2131806737049074
125.0,0.2184549502579904
125.25,0.2120847138380661
125.5,0.1988121232042686
125.75,0.1835523587371003
126.0,0.1707201080361551
126.25,0.1637307873376169
126.5,0.1647327740600115
126.75,0.1745688547070795
127.0,0.1929139193163835
127.25,0.2185039073304556
127.5,0.2493653968310288
127.75,0.2829765582365138
128.0,0.3163320178888386
128.25,0.3459344752435347
128.5,0.3677799078960957
128.75,0.3774270029827751
129.0,0.3702357985591694
129.25,0.3418235728679374
129.5,0.2887245707914527
129.75,0.2091686626992572
130.0,0.1038315572385155
130.25,-0.0236251986915684
130.5,-0.1663985599698239
130.75,-0.3148926398034938
131.0,-0.4575982829605805
131.25,-0.5824160432384118
131.5,-0.678226288198966
131.75,-0.7364343970658264
132.0,-0.7521984293932065
132.25,-0.7250915518037033
132.5,-0.6590565967035577
132.75,-0.5616543916926681
133.0,-0.4427583929637558
133.25,-0.3129691313009702
133.5,-0.1820817195146047
133.75,-0.0579206600752415
134.0,0.0542397524666349
134.25,0.1516021113553696
134.5,0.233220918220573
134.75,0.2990695284755898
135.0,0.3491197616583172
135.25,0.3827437269369688
135.5,0.3986476239691947
135.75,0.3953829351742903
136.0,0.3722946904638142
136.25,0.3306108998180658
136.5,0.2742980340857673
136.75,0.2103324225935108
137.0,0.1481672608243616
137.25,0.0983811462993314
137.5,0.0707251801112684
137.75,0.0719797971987147
138.0,0.1041336323137265
138.25,0.1633704244718445
138.5,0.2401939165474624
138.75,0.3207672950910656
139.0,0.3892532147648171
139.25,0.4306863610402697
139.5,0.4337605526412848
139.75,0.3929101650221411
140.0,0.3092178960184084
140.25,0.189954064651441
140.5,0.0468802170114656
140.75,-0.1062512739085453
141.0,-0.2563778270613373
141.25,-0.3933306324432937
141.5,-0.5110426053969271
141.75,-0.6075154123333774
142.0,-0.6836411888722087
142.25,-0.7412907007075075
142.5,-0.7812852980455689
142.75,-0.8019066302746264
143.0,-0.7984515687605401
143.25,-0.7640454585909493
143.5,-0.6915614340458222
143.75,-0.5761557433473662
144.0,-0.4177133348439834
144.25,-0.2224689306203179
144.5,-0.0032425882963075
144.75,0.2219330085108925
145.0,0.4325979383129305
145.25,0.6094783161072298
145.5,0.7380883279774939
145.75,0.8114361809468562
146.0,0.8311330444320667
146.25,0.8065785783099636
146.5,0.7523710404247267
146.75,0.6845441750953636
147.0,0.6165483864923752
147.25,0.5559838997248558
147.5,0.5029284615466381
147.75,0.4503166870394479
148.0,0.386315291810505
148.25,0.29812615038918
148.5,0.1762682128132343
148.75,0.018239822146911
149.0,-0.1694121135189657
149.25,-0.3712163717669258
149.5,-0.5651632100912967
149.75,-0.7268597621941852
150.0,-0.8345148470198342
150.25,-0.8735897307535311
150.5,-0.840010898066614
150.75,-0.7411707472797336
151.0,-0.5944624727769807
151.25,-0.4236788702375316
151.5,-0.2541083946150774
151.75,-0.1074626326497038
152.0,0.0022047968625507
152.25,0.0706809331497515
152.5,0.1034378879132533
152.75,0.1132636367703695
153.0,0.1163267884173256
153.25,0.1276778031174829
153.5,0.1572929968884719
153.75,0.2076008882701592
154.0,0.2730402493463618
154.25,0.3416865697169621
154.5,0.3984770171177336
154.75,0.429186986350812
155.0,0.4241523317649221
155.25,0.3808227098986517
155.5,0.3045431205162327
155.75,0.2074097249645094
156.0,0.1055184719561526
156.25,0.0153052510631641
156.5,-0.0501249067566383
156.75,-0.083806356653679
157.0,-0.0862191751217373
157.25,-0.0648315164351735
157.5,-0.0320426217520891
157.75,-0.0020617801060924
158.0,0.0125125110623359
158.25,0.0036096962239532
158.5,-0.0305520669154961
158.75,-0.0852182708032444
159.0,-0.1503561573687891
159.25,-0.2130674915834532
159.5,-0.2605604496228301
159.75,-0.2829903164837479
160.0,-0.2755460734355125
160.25,-0.2393633575653973
160.5,-0.1811280055549453
160.75,-0.1115284717874142
161.0,-0.0429530279226087
161.25,0.0130395705137469
161.5,0.0479396939343155
161.75,0.0577683615801224
162.0,0.0435809950784202
162.25,0.0109740851816689
162.5,-0.0312232522901798
162.75,-0.0727492982451429
163.0,-0.1038185367656634
163.25,-0.1167811432121603
163.5,-0.1072668783134776
163.75,-0.0746772241599526
164.0,-0.0220254275455034
164.25,0.044762669841716
164.5,0.1179019470022016
164.75,0.1889453362717253
165.0,0.2499318741737302
165.25,0.2943378543160846
165.5,0.317741916487633
165.75,0.3181715342726952
166.0,0.2961432611129778
166.25,0.2544382774203283
166.5,0.1976695299338984
166.75,0.1317016154817943
167.0,0.062984848004423
167.25,-0.0021354156178651
167.5,-0.0580728048521871
167.75,-0.1005562672504365
168.0,-0.1270316191085904
168.25,-0.1368619705947178
168.5,-0.1312999319393893
168.75,-0.113231580949157
169.0,-0.08672370532927
169.25,-0.0564363877885309
169.5,-0.0269863086529904
169.75,-0.00235663784752
170.0,0.0145563496999296
170.25,0.0221920877270961
170.5,0.0203378490465962
170.75,0.0099151792635074
171.0,-0.0074059171141895
171.25,-0.0296781750979469
171.5,-0.0551295874321862
171.75,-0.08249658731736
172.0,-0.1111618068680306
172.25,-0.1410623125587203
172.5,-0.1723859981545342
172.75,-0.205125052626519
173.0,-0.2385949821327934
173.25,-0.2710459083713719
173.5,-0.2994838930327339
173.75,-0.319783410996148
174.0,-0.3271135323261092
174.25,-0.3166311219163595
174.5,-0.2843291986022742
174.75,-0.2278827293165941
175.0,-0.14731967825252
175.25,-0.0453678934243593
175.5,0.0726140943885801
175.75,0.1991329878218445
176.0,0.3254062891350646
176.25,0.4424064894242057
176.5,0.5419106715524638
176.75,0.6173632192487464
177.0,0.6644045592410883
177.25,0.6809986576319561
177.5,0.6671873808683475
177.75,0.6245870202692388
178.0,0.5557985708374238
178.25,0.4639131832937324
178.5,0.3522536618855147
178.75,0.2244114078725874
179.0,0.0845368504765911
179.25,-0.0622521945131933
179.5,-0.2095384802310317
179.75,-0.3495483126207332
180.0,-0.4735128611379327
180.25,-0.5724861571085711
180.5,-0.6385283726114166
180.75,-0.6660417271724436
181.0,-0.6529673384826054
181.25,-0.6015396306031652
181.5,-0.5183598914101895
181.75,-0.4136823612388646
182.0,-0.2999771066331247
182.25,-0.1900043585552093
182.5,-0.0947630558305338
182.75,-0.0217281947978341
183.0,0.0262496289352009
183.25,0.0511383374388209
183.5,0.0589586272708107
183.75,0.0582144193838553
184.0,0.0578556469370419
184.25,0.0652173362303232
184.5,0.0843877650291387
184.75,0.1153644772252751
185.0,0.1541803818846635
185.25,0.1939629629099421
185.5,0.2266779729221554
185.75,0.2451535692717837
186.0,0.2449173770688469
186.25,0.2254218057209508
186.5,0.1903718940100812
186.75,0.147072812565374
187.0,0.1049344367405147
187.25,0.0734583033199063
187.5,0.0601461247616442
187.75,0.0687846972082841
188.0,0.0984779031271321
188.25,0.1436332662872015
188.5,0.1949058015630091
188.75,0.2409013020461309
189.0,0.2702878314528421
189.25,0.2738892520940396
189.5,0.2463510968757954
189.75,0.1870697514048173
190.0,0.1002358612899793
190.25,-0.0059741454031558
190.5,-0.120857798992116
190.75,-0.232980240611011
191.0,-0.3319391424094874
191.25,-0.4097697380717744
191.5,-0.4617561537875499
191.75,-0.4865544828030269
192.0,-0.4856828993654565
192.25,-0.4625627272267777
192.5,-0.4213759156736276
192.75,-0.3660239111347685
193.0,-0.2994289695153614
193.25,-0.2233232662019968
193.5,-0.1385458667206444
193.75,-0.0457405417884752
194.0,0.0537536617034833
194.25,0.1570801004464911
194.5,0.2593642247879913
194.75,0.3537222787877906
195.0,0.4318531160315296
195.25,0.4851518329485491
195.5,0.5061552354499136
195.75,0.4900360370327504
196.0,0.435827423721495
196.25,0.3470928198165748
196.5,0.2318533858462689
196.75,0.1017295693067517
