Time (s),Wave elevation (m)
0.0,1.5000698144059892
0.25,1.5000698144059892
0.5,1.556571022232857
0.75,1.5945548735355717
1.0,1.613208596975016
1.25,1.612354470373344
1.5,1.5924486249609957
1.75,1.5545362443080226
2.0,1.500168001357583
2.25,1.4312855517536127
2.5,1.350086162264506
2.75,1.2588779316988226
3.0,1.1599374651301904
3.25,1.0553812783010958
3.5,0.9470607062197268
3.75,0.8364878105471985
4.0,0.7247969280088505
4.25,0.6127433242457788
4.5,0.500737184904417
4.75,0.3889081598035744
5.0,0.2771931268074882
5.25,0.1654379680546351
5.5,0.0535031026514821
5.75,-0.0586376230429234
6.0,-0.1708143198426107
6.25,-0.2826027429756101
6.5,-0.3932960099403101
6.75,-0.501909279490758
7.0,-0.6072172681445435
7.25,-0.7078214309652159
7.5,-0.8022408491670788
7.75,-0.889018587493449
8.0,-0.9668337070739416
8.25,-1.0346083846231142
8.5,-1.0915997671640547
8.75,-1.1374672784123534
9.0,-1.172308008768678
9.25,-1.196655416653057
9.5,-1.2114396383490145
9.75,-1.2179109991807555
10.0,-1.21753157185224
10.25,-1.211842569278544
10.5,-1.2023177419400348
10.75,-1.190214567875719
11.0,-1.1764357293126677
11.25,-1.1614130864601062
11.5,-1.1450250862269546
11.75,-1.126556359513344
12.0,-1.1047053157970534
12.25,-1.0776420500115982
12.5,-1.0431150918590597
12.75,-0.9986017355388104
13.0,-0.941493176796828
13.25,-0.8693027251492202
13.5,-0.7798831848235184
13.75,-0.6716382849621264
14.0,-0.5437128946713259
14.25,-0.3961477100310955
14.5,-0.2299860958648168
14.75,-0.0473236753344012
15.0,0.1487051121493169
15.25,0.3540051704525017
15.5,0.563661035133728
15.75,0.7721325471329191
16.0,0.9734954240520984
16.25,1.161713170776189
16.5,1.3309245883080023
16.75,1.4757299950966078
17.0,1.5914592452684848
17.25,1.674405710362992
17.5,1.7220125045515686
17.75,1.7330002254286367
18.0,1.7074291410813502
18.25,1.6466928233347615
18.5,1.5534444261956477
18.75,1.431460852799345
19.0,1.2854536751751042
19.25,1.1208386357597304
19.5,0.9434776859620668
19.75,0.7594086865392898
20.0,0.5745780585697849
20.25,0.3945908556807416
20.5,0.2244910193073722
20.75,0.0685821299950338
21.0,-0.0697040233699971
21.25,-0.1878870397536126
21.5,-0.2844650290844145
21.75,-0.3588918388382754
22.0,-0.4115097991099845
22.25,-0.443445686926489
22.5,-0.4564792165145813
22.75,-0.4528942178618846
23.0,-0.4353227600480177
23.25,-0.4065918548979859
23.5,-0.3695811383107893
23.75,-0.3270982102958411
24.0,-0.281776287953123
24.25,-0.2359966698613947
24.5,-0.1918364057751343
24.75,-0.151039676562078
25.0,-0.1150098518956353
25.25,-0.0848181050556045
25.5,-0.0612238784524589
25.75,-0.0447024164542767
26.0,-0.035474974828064
26.25,-0.0335380999064775
26.5,-0.0386894356346113
26.75,-0.0505487330453142
27.0,-0.0685739669340539
27.25,-0.092073576162295
27.5,-0.1202167218111048
27.75,-0.152044013289838
28.0,-0.1864813332115198
28.25,-0.222359183159529
28.5,-0.2584393999221933
28.75,-0.2934502177645642
29.0,-0.3261295699328914
29.25,-0.355275346734793
29.5,-0.3798001840624559
29.75,-0.3987873701565414
30.0,-0.411543742216067
30.25,-0.417645087411214
30.5,-0.4169696223856971
30.75,-0.4097156211816082
31.0,-0.3964001731542166
31.25,-0.3778373200258861
31.5,-0.3550953500263715
31.75,-0.3294346949989793
32.0,-0.3022295440203186
32.25,-0.2748778094740108
32.5,-0.2487053204047424
32.75,-0.2248709539530775
33.0,-0.2042797588348426
33.25,-0.1875109231916714
33.5,-0.1747666840177346
33.75,-0.1658470032846194
34.0,-0.1601531267765661
34.25,-0.1567211134612411
34.5,-0.1542842233166201
34.75,-0.1513608455300963
35.0,-0.1463626079238211
35.25,-0.137715595311
35.5,-0.1239863610646621
35.75,-0.1040037515213312
36.0,-0.0769675439973464
36.25,-0.042535545190793
36.5,-0.0008820762166865
36.75,0.0472773967155542
37.0,0.1006984645776808
37.25,0.1576572556118944
37.5,0.2160350143620331
37.75,0.2734330779366739
38.0,0.3273113119264862
38.25,0.3751412866437094
38.5,0.4145642821286675
38.75,0.4435437009158627
39.0,0.4605016846159027
39.25,0.4644306646089147
39.5,0.4549721665523536
39.75,0.4324573227070188
40.0,0.397906074806532
40.25,0.3529847937740999
40.5,0.2999248056896808
40.75,0.24140689942374
41.0,0.180419116990141
41.25,0.1200968365188657
41.5,0.0635552317827213
41.75,0.0137245603755139
42.0,-0.0268016241331562
42.25,-0.0558962884345532
42.5,-0.0719993709055927
42.75,-0.0741836084864596
43.0,-0.062182930469
43.25,-0.0363831969869846
43.5,0.0022224085322655
43.75,0.052108730221742
44.0,0.1113182383349223
44.25,0.1775770177811624
44.5,0.2484185457622051
44.75,0.3213065737371488
45.0,0.3937489941305263
45.25,0.4633957273309326
45.5,0.5281153066285313
45.75,0.5860468294170976
46.0,0.6356261194652203
46.25,0.675587132949595
46.5,0.7049416677503534
46.75,0.7229421438648538
47.0,0.7290334823821055
47.25,0.7228008277324197
47.5,0.703919982935443
47.75,0.6721169573657307
48.0,0.6271420049688006
48.25,0.5687620447054006
48.5,0.4967735270240589
48.75,0.411035789315253
49.0,0.3115228931026734
49.25,0.1983900216122391
49.5,0.072048892990699
49.75,-0.0667545560511875
50.0,-0.2168676393886129
50.25,-0.3766710624207219
50.5,-0.5440387519133482
50.75,-0.7163233221530665
51.0,-0.8903715599548431
51.25,-1.0625723609865645
51.5,-1.228937353467095
51.75,-1.3852121600036236
52.0,-1.5270140384949789
52.25,-1.649989667811986
52.5,-1.7499852458253995
52.75,-1.8232199618141205
53.0,-1.8664533728283372
53.25,-1.8771372941471989
53.5,-1.8535435044902204
53.75,-1.7948598216871376
54.0,-1.701248839978632
54.25,-1.5738657196245578
54.5,-1.41483374295343
54.75,-1.2271787447349678
55.0,-1.0147258324410635
55.25,-0.7819638853912021
55.5,-0.5338850309899313
55.75,-0.2758075380656657
56.0,-0.0131912717749331
56.25,0.248545011037496
56.5,0.5041956768569693
56.75,0.7489216425738856
57.0,0.978378712005152
57.25,1.18881605647615
57.5,1.3771420301403587
57.75,1.540956552497431
58.0,1.678551283795522
58.25,1.788880637284905
58.5,1.8715082053235284
58.75,1.926534336700113
59.0,1.954511330689937
59.25,1.9563529805341555
59.5,1.9332450079964751
59.75,1.8865623142593075
60.0,1.817797990265372
60.25,1.7285077630050758
60.5,1.620272100007886
60.75,1.4946766577599584
61.0,1.3533102475917056
61.25,1.197778105751935
61.5,1.0297270819606783
61.75,0.8508784746035072
62.0,0.6630636917475545
62.25,0.4682577327703661
62.5,0.2686056688433662
62.75,0.0664378315888552
63.0,-0.1357297436095019
63.25,-0.3352119894834036
63.5,-0.5291897069565569
63.75,-0.7147624588226484
64.0,-0.8890178702855143
64.25,-1.0491144780217905
64.5,-1.1923741574602469
64.75,-1.3163792745140428
65.0,-1.4190691081680442
65.25,-1.4988298127843167
65.5,-1.554572254213353
65.75,-1.5857924632388551
66.0,-1.5926101861069728
66.25,-1.5757820395867612
66.5,-1.5366870458074762
66.75,-1.4772837651116286
67.0,-1.4000397880153954
67.25,-1.307835907900803
67.5,-1.2038487891678802
67.75,-1.0914172873262562
68.0,-0.9738986893280775
68.25,-0.8545219551667291
68.5,-0.7362454994150133
68.75,-0.6216271145254121
69.0,-0.5127132862343555
69.25,-0.4109543864319381
69.5,-0.3171510738123904
69.75,-0.2314357332172489
70.0,-0.153291007629412
70.25,-0.0816055077933642
70.5,-0.0147647240934887
70.75,0.0492268752312155
71.0,0.1125984801924804
71.25,0.1776478844416339
71.5,0.2465676122807097
71.75,0.321271948379263
72.0,0.4032349208101434
72.25,0.4933490543481304
72.5,0.5918139009775003
72.75,0.6980619886024235
73.0,0.8107279616713231
73.25,0.927664406336676
73.5,1.0460052747858897
73.75,1.162275089188276
74.0,1.272539372311919
74.25,1.3725891836207644
74.5,1.4581503982947486
74.75,1.525106600874114
75.0,1.569723300804002
75.25,1.5888607075704524
75.5,1.5801625822669372
75.75,1.542209719351135
76.0,1.4746283687207178
76.25,1.3781462988831623
76.5,1.254592098551578
76.75,1.1068365515947434
77.0,0.9386783069384456
77.25,0.7546793932910734
77.5,0.5599591885749009
77.75,0.3599580471271408
78.0,0.1601837403055672
78.25,-0.034044958692797
78.5,-0.2178429068773028
78.75,-0.3869773957029786
79.0,-0.5380485566570391
79.25,-0.668621069957974
79.5,-0.7772998148416506
79.75,-0.8637455199968147
80.0,-0.9286301606696922
80.25,-0.9735355683747012
80.5,-1.0008022283510143
80.75,-1.0133383082828509
81.0,-1.0144013856850729
81.25,-1.007366958316971
81.5,-0.9954985225123292
81.75,-0.9817337399727892
82.0,-0.968500001030638
82.25,-0.9575706129103296
82.5,-0.9499700359092192
82.75,-0.9459332496990864
83.0,-0.9449206843695664
83.25,-0.945686446100989
83.5,-0.94639405917372
83.75,-0.944770874203378
84.0,-0.9382898658892896
84.25,-0.924365925119784
84.5,-0.9005530452715207
84.75,-0.8647290509372717
85.0,-0.8152556908229026
85.25,-0.7511039206271322
85.5,-0.6719368824386084
85.75,-0.578146242527368
86.0,-0.4708409440970748
86.25,-0.3517908144632995
86.5,-0.2233305888568802
86.75,-0.0882325485041739
87.0,0.0504420700845156
87.25,0.1895015910862223
87.5,0.3257807770024065
87.75,0.4562851364992246
88.0,0.5783131923611958
88.25,0.6895494033577958
88.5,0.7881231194630439
88.75,0.8726319363916867
89.0,0.9421308589577632
89.25,0.9960915354562512
89.5,1.0343382546870212
89.75,1.0569692047824673
90.0,1.0642725298068378
90.25,1.0566468992318103
90.5,1.0345356093073022
90.75,0.99838171798262
91.0,0.9486094983555432
91.25,0.8856347607623473
91.5,0.809903567225895
91.75,0.7219557988224234
92.0,0.6225071995912799
92.25,0.5125411602043515
92.5,0.3933998381054904
92.75,0.266863404603465
93.0,0.1352063644204502
93.25,0.0012210354140655
93.5,-0.1317996474051866
93.75,-0.2601249587134422
94.0,-0.3796963092737195
94.25,-0.4862819021381164
94.5,-0.5756698490405497
94.75,-0.6438898222009224
95.0,-0.6874502046465175
95.25,-0.7035754006248035
95.5,-0.6904266920847723
95.75,-0.6472899228128879
96.0,-0.5747144207695457
96.25,-0.4745899034039903
96.5,-0.3501515314142152
96.75,-0.2059075802691023
97.0,-0.0474891107332626
97.25,0.1185737889572527
97.5,0.2851395051545187
97.75,0.4447917942928945
98.0,0.5902078429860952
98.25,0.7145364720420224
98.5,0.8117639866680225
98.75,0.8770451546746176
99.0,0.9069782734594704
99.25,0.8998062037991997
99.5,0.855529441065527
99.75,0.7759225073275138
100.0,0.664450850000907
100.25,0.5260916395480597
100.5,0.3670679578407741
100.75,0.194511448596231
101.0,0.0160731797713388
101.25,-0.160494080482681
101.5,-0.3277569932902171
101.75,-0.4790006435612536
102.0,-0.6085811585724737
102.25,-0.7122105939638251
102.5,-0.7871570174435325
102.75,-0.8323481313183855
103.0,-0.8483729531145455
103.25,-0.8373826089281184
103.5,-0.8028977511830868
103.75,-0.7495360601108361
104.0,-0.6826783296480522
104.25,-0.6080954383175365
104.5,-0.5315608134466685
104.75,-0.4584736641269198
105.0,-0.3935172479423204
105.25,-0.3403738262570749
105.5,-0.3015139388489941
105.75,-0.2780724722833317
106.0,-0.2698180644429245
106.25,-0.2752160872723803
106.5,-0.291579210250763
106.75,-0.3152937897798538
107.0,-0.3421054391196653
107.25,-0.3674434311581994
107.5,-0.3867613088286
107.75,-0.3958703617051285
108.0,-0.3912434997965469
108.25,-0.3702694349234217
108.5,-0.331440781905977
108.75,-0.2744644432210419
109.0,-0.2002881005440275
109.25,-0.1110424196610309
109.5,-0.0099042802558847
109.75,0.0991084204741327
110.0,0.2113954222546409
110.25,0.3220679332627143
110.5,0.4262573575535446
110.75,0.5194180610318786
111.0,0.5976041770396322
111.25,0.6577026562559355
111.5,0.6976081332659024
111.75,0.7163294553644685
112.0,0.7140225817891465
112.25,0.6919496632471799
112.5,0.6523690930895621
112.75,0.5983658402417112
113.0,0.533635128004725
113.25,0.4622352710703685
113.5,0.3883270612333449
113.75,0.3159174226258729
114.0,0.2486241522324877
114.25,0.1894765204189375
114.5,0.1407635065293242
114.75,0.1039377268200748
115.0,0.0795789610909561
115.25,0.0674169081730514
115.5,0.0664087068954281
115.75,0.0748631341585714
116.0,0.0906004790424372
116.25,0.1111350765698688
116.5,0.1338664814372733
116.75,0.1562653084075362
117.0,0.1760408222724997
117.25,0.1912793139646597
117.5,0.2005449758804213
117.75,0.2029381663928113
118.0,0.1981093784619291
118.25,0.1862306371967108
118.5,0.1679291923495156
118.75,0.1441910179434334
119.0,0.1162436002369924
119.25,0.0854286609094172
119.5,0.0530757626861699
119.75,0.0203871846464115
120.0,-0.0116568959034562
120.25,-0.0423658909288348
120.5,-0.0713744349723404
120.75,-0.098644421546808
121.0,-0.1244345376981054
121.25,-0.149241064377769
121.5,-0.1737160133784881
121.75,-0.198570434108855
122.0,-0.2244718195767936
122.25,-0.2519448986391516
122.5,-0.2812847070816622
122.75,-0.3124897276937998
123.0,-0.3452211770066181
123.25,-0.3787923366622865
123.5,-0.4121893567766314
123.75,-0.4441223928714068
124.0,-0.4731034770001097
124.25,-0.4975453566597922
124.5,-0.5158738260466772
124.75,-0.5266449502753524
125.0,-0.528658125482097
125.25,-0.5210561560749382
125.5,-0.5034044417808695
125.75,-0.4757428782847468
126.0,-0.4386060687744378
126.25,-0.3930097675024636
126.5,-0.3404039555113829
126.75,-0.282595398262523
127.0,-0.221644774488496
127.25,-0.1597453319432209
127.5,-0.0990913847182093
127.75,-0.0417457227853717
128.0,0.0104848933229679
128.25,0.0561575340687723
128.5,0.0942767462404912
128.75,0.1243482795227238
129.0,0.1463992208076974
129.25,0.1609631993517913
129.5,0.1690317427943301
129.75,0.1719751905753446
130.0,0.1714386454424748
130.25,0.1692201236280396
130.5,0.1671392377636584
130.75,0.1669053386524733
131.0,0.1699940192904579
131.25,0.1775402568789138
131.5,0.1902552875028484
131.75,0.2083726623628589
132.0,0.2316269428704106
132.25,0.259266294811417
132.5,0.2900979905725251
132.75,0.3225636750097049
133.0,0.3548393368637254
133.25,0.3849533762228763
133.5,0.4109150646687174
133.75,0.4308451206783866
134.0,0.4431000945577765
134.25,0.4463827635968011
134.5,0.4398317330689705
134.75,0.4230848449852843
135.0,0.3963127122124374
135.25,0.3602206015951293
135.5,0.3160188584000136
135.75,0.2653639682621395
136.0,0.2102740730908229
136.25,0.1530241915533237
136.5,0.0960274626879583
136.75,0.0417093795962757
137.0,-0.0076178150580883
137.25,-0.0498736333869919
137.5,-0.0833144462512105
137.75,-0.1066198718271238
138.0,-0.1189563886303024
138.25,-0.1200155468222954
138.5,-0.1100256671594666
138.75,-0.0897374165380711
139.0,-0.0603850416589361
139.25,-0.0236262488771035
139.5,0.0185353235324481
139.75,0.063840427180344
140.0,0.1098723505214863
140.25,0.1541578778782455
140.5,0.1942662935900632
140.75,0.2279021623117372
141.0,0.2529883138705681
141.25,0.2677362961304237
141.5,0.2707024656887273
141.75,0.2608287980114966
142.0,0.2374683548200079
142.25,0.2003960951540628
142.5,0.1498063176025699
142.75,0.0862984489261812
143.0,0.0108531380434818
143.25,-0.0751993215917356
143.5,-0.1702163158365232
143.75,-0.2722842843779384
144.0,-0.3792627743239123
144.25,-0.4888301760994424
144.5,-0.5985305259046485
144.75,-0.7058211036713012
145.0,-0.8081208267838473
145.25,-0.902859609162274
145.5,-0.9875289044825968
145.75,-1.0597335749736123
146.0,-1.1172450291925835
146.25,-1.1580552709110985
146.5,-1.1804311244455603
146.75,-1.1829674852389334
147.0,-1.16463802935383
147.25,-1.124841445027175
147.5,-1.0634409655971238
147.75,-0.980794823428816
148.0,-0.8777752388234183
148.25,-0.7557737259997312
148.5,-0.6166908477024445
148.75,-0.4629090752153763
149.0,-0.2972480925028594
149.25,-0.1229026900833147
149.5,0.0566357168742206
149.75,0.2376719925110896
150.0,0.4164117603015189
150.25,0.5890738071367178
150.5,0.7520060972005155
150.75,0.9018006144919593
151.0,1.0354020235213122
151.25,1.150205175291373
151.5,1.2441368041944858
151.75,1.3157173578827903
152.0,1.3640997557776022
152.25,1.3890829446950792
152.5,1.391099358442619
152.75,1.371176725559618
153.0,1.330876029661491
153.25,1.2722087291744384
153.5,1.1975375066756049
153.75,1.109465766767314
154.0,1.0107217697981183
154.25,0.9040436260042696
154.5,0.7920713487115796
154.75,0.677251765607371
155.0,0.5617613264337432
155.25,0.4474507597692209
155.5,0.3358141788561065
155.75,0.2279836938842918
156.0,0.1247489479421164
156.25,0.0265993578481961
156.5,-0.0662146853846159
156.75,-0.1536067164941159
157.0,-0.2355712672886553
157.25,-0.3120998114824603
157.5,-0.38310248260736
157.75,-0.4483422004677037
158.0,-0.5073871172999498
158.25,-0.559586141682541
158.5,-0.6040707769128417
158.75,-0.6397847079830727
159.0,-0.6655405960841394
159.25,-0.6801015157980598
159.5,-0.6822825297675222
159.75,-0.6710661702228007
160.0,-0.6457242089139932
160.25,-0.6059371521042577
160.5,-0.5519024760017008
160.75,-0.4844227702322072
161.0,-0.4049656974973535
161.25,-0.3156889840042338
161.5,-0.2194254681435107
161.75,-0.1196254603303526
162.0,-0.0202561814594226
162.25,0.0743392949973562
162.5,0.1596185316825209
162.75,0.2310441221450654
163.0,0.2843063477659492
163.25,0.315552815772113
163.5,0.3216127593462375
163.75,0.3002033255942518
164.0,0.2501055488008338
164.25,0.1712988061935645
164.5,0.0650443385656847
164.75,-0.066089196460554
165.0,-0.2182623078742599
165.25,-0.3864643742921151
165.5,-0.5646741153013891
165.75,-0.7460751858246467
166.0,-0.9233181824993362
166.25,-1.0888176912660064
166.5,-1.235070907528658
166.75,-1.3549829494914047
167.0,-1.44218334810067
167.25,-1.4913183760710365
167.5,-1.4983048698911512
167.75,-1.460532952356393
168.0,-1.377007485645879
168.25,-1.2484210451799138
168.5,-1.0771545415659625
168.75,-0.8672051507228291
169.0,-0.6240447500507833
169.25,-0.3544154121325111
169.5,-0.0660715001778084
169.75,0.2325196130791804
170.0,0.5325043425654598
170.25,0.8249822298816133
170.5,1.101342505884955
170.75,1.3535829862429136
171.0,1.5745975685550708
171.25,1.7584204117173594
171.5,1.9004172314917036
171.75,1.9974169033898683
172.0,2.0477795704489936
172.25,2.051400546760587
172.5,2.009652326515734
172.75,1.9252698017717091
173.0,1.802186227020242
173.25,1.6453294362515856
173.5,1.4603892390288802
173.75,1.2535677486065415
174.0,1.0313246127721385
174.25,0.8001287442657928
174.5,0.5662272290435373
174.75,0.3354406992213574
175.0,0.1129926852044787
175.25,-0.0966215856719082
175.5,-0.2897236847505915
175.75,-0.4634967660262954
176.0,-0.6159878196932278
176.25,-0.7460705950027084
176.5,-0.8533741533469488
176.75,-0.9381834443070486
177.0,-1.0013193468395654
177.25,-1.044006251941265
177.5,-1.0677354694601071
177.75,-1.0741325272771234
178.0,-1.0648358211498727
178.25,-1.041393109595715
178.5,-1.0051810856226997
178.75,-0.957351762321532
179.0,-0.8988077569699253
179.25,-0.8302068282828874
179.5,-0.7519942959344872
179.75,-0.6644603319157016
180.0,-0.5678176374539643
180.25,-0.4622937783507812
180.5,-0.3482315076699688
180.75,-0.2261898078340893
181.0,-0.0970381702287017
181.25,0.0379631810423132
181.5,0.1771038218763494
181.75,0.3181901383399858
182.0,0.45854320525252
182.25,0.5950302992038816
182.5,0.7241309649834913
182.75,0.8420365731756623
183.0,0.9447802908674718
183.25,1.0283924439684895
183.5,1.0890744877378886
183.75,1.123383327437313
184.0,1.1284166397146442
184.25,1.1019892179339852
184.5,1.0427902605537451
184.75,0.9505119741141312
185.0,0.8259408750106872
185.25,0.6710047187156258
185.5,0.4887700009548912
185.75,0.2833873714164974
186.0,0.0599849587016882
186.25,-0.1754876142069369
186.5,-0.4164589955799148
186.75,-0.6559715652013948
187.0,-0.8869422914573863
187.25,-1.1024369651447008
187.5,-1.295944675875977
187.75,-1.4616389791064837
188.0,-1.5946125297237588
188.25,-1.691073038394496
188.5,-1.7484902008017464
188.75,-1.7656856742554976
189.0,-1.742861106547103
189.25,-1.681562499172742
189.5,-1.5845826260157576
189.75,-1.4558066289174525
190.0,-1.3000090699442912
190.25,-1.1226134430105623
190.5,-0.9294272635875868
190.75,-0.7263672270450303
191.0,-0.5191894596068186
191.25,-0.3132395372066756
191.5,-0.1132357271927177
191.75,0.0769031189674117
192.0,0.2541763103799144
192.25,0.4165612318778892
192.5,0.563012538569108
192.75,0.6934024258225501
193.0,0.8084073399250631
193.25,0.9093497222885036
193.5,0.9980060626893168
193.75,1.076394504591392
194.0,1.146556373042014
194.25,1.2103462112264334
194.5,1.269244202228827
194.75,1.3242032641987138
195.0,1.3755407431291449
195.25,1.4228816412552974
195.5,1.4651569044238677
195.75,1.5006566700268322
196.0,1.5271347826317456
196.25,1.5419575492335538
196.5,1.5422868442901403
196.75,1.5252854686876731
197.0,1.488331254957843
197.25,1.429225879040662
