Time (s),Wave elevation (m)
0.0,0.2142956877722849
0.25,0.2142956877722849
0.5,0.2301125366795704
0.75,0.2247593044431253
1.0,0.2006924267286524
1.25,0.1639255891035201
1.5,0.1210546823059817
1.75,0.0766121919768541
2.0,0.032211344944523
2.25,-0.0122767034891598
2.5,-0.0565568934835102
2.75,-0.0983648688649349
3.0,-0.1336667245999461
3.25,-0.1585188042978474
3.5,-0.1713387896451533
3.75,-0.1739658803286776
4.0,-0.1705681580060982
4.25,-0.1648057013726863
4.5,-0.1568680691786604
4.75,-0.1423142708786549
5.0,-0.113798084359314
5.25,-0.0651797195574224
5.5,0.0039250493019032
5.75,0.0855917444489446
6.0,0.1646580716235747
6.25,0.2233274900380027
6.5,0.2474603572468392
6.75,0.2318273602947143
7.0,0.1820426262934402
7.25,0.1124188842610672
7.5,0.0408089865358516
7.75,-0.0172824183322676
8.0,-0.052957859384355
8.25,-0.0651939244141476
8.5,-0.0592217188105097
8.75,-0.0432990005267786
9.0,-0.0255107677414125
9.25,-0.0117555968606212
9.5,-0.0051751919213708
9.75,-0.0065339624917107
10.0,-0.0148324605193449
10.25,-0.02773799234477
10.5,-0.041906088029132
10.75,-0.053541069491343
11.0,-0.0593974457650032
11.25,-0.0579796360411952
11.5,-0.0503116233512494
11.75,-0.0396586774062607
12.0,-0.0300696381401662
12.25,-0.0243169061138637
12.5,-0.0222997457115679
12.75,-0.020889564242868
13.0,-0.0155034589059818
13.25,-0.0027378825496882
13.5,0.0172856559183674
13.75,0.0401953854571446
14.0,0.0588374131371266
14.25,0.0663797467524821
14.5,0.0595956001463227
14.75,0.0406997756397325
15.0,0.016784772359641
15.25,-0.0029240378289306
15.5,-0.0107165449991632
15.75,-0.0032780220371625
16.0,0.0174122805673667
16.25,0.0453401593652684
16.5,0.0730040370881405
16.75,0.0938801336693199
17.0,0.103704822268855
17.25,0.1003102265107485
17.5,0.0826409694281307
17.75,0.0500099306945161
18.0,0.0023866481350856
18.25,-0.0582702745277839
18.5,-0.1264507404761863
18.75,-0.1924841217095882
19.0,-0.2437400664929191
19.25,-0.2676236069811765
19.5,-0.2553893866548747
19.75,-0.2052646600507739
20.0,-0.1235514489870896
20.25,-0.0231954454252021
20.5,0.0796372249247996
20.75,0.1696504004336622
21.0,0.2356891750705228
21.25,0.2722005081340785
21.5,0.2787610797692291
21.75,0.2583597010673027
22.0,0.2155051071859176
22.25,0.1550597763891128
22.5,0.0821237335282738
22.75,0.0026333274342419
23.0,-0.0760706756564173
23.25,-0.1454308209473535
23.5,-0.1969240543759879
23.75,-0.2240850909080304
24.0,-0.2245201424892346
24.25,-0.2009797136339492
24.5,-0.1608357780450505
24.75,-0.1139162513493202
25.0,-0.0693506960662117
25.25,-0.0325832304822268
25.5,-0.0037752071020047
25.75,0.0216293951151244
26.0,0.0502410272827605
26.25,0.0869426335961824
26.5,0.1315637435949049
26.75,0.1775564344645613
27.0,0.2134948516603466
27.25,0.2270428585159329
27.5,0.2098914968583629
27.75,0.1615931613330911
28.0,0.0905397733865771
28.25,0.0114813157435474
28.5,-0.0595136711891203
28.75,-0.1105788389194307
29.0,-0.1377077865774308
29.25,-0.1450163961661262
29.5,-0.1416194251535795
29.75,-0.1366792852578004
30.0,-0.1349884118979173
30.25,-0.1351086406876286
30.5,-0.1307826409859883
30.75,-0.1147166857851068
31.0,-0.0827287132125127
31.25,-0.0362069768125178
31.5,0.0181812538671686
31.75,0.071118646068729
32.0,0.1140462334541356
32.25,0.1415782364349136
32.5,0.151935407527361
32.75,0.1456939580285291
33.0,0.124150435231534
33.25,0.0887163843600342
33.5,0.0419071890160274
33.75,-0.0108027661280061
34.0,-0.0598986107523153
34.25,-0.0930465234497001
34.5,-0.0989537291744623
34.75,-0.0725289476107627
35.0,-0.0188160311357898
35.25,0.046744222506281
35.5,0.1026788123806438
35.75,0.1291814180606138
36.0,0.1159891950541249
36.25,0.0668372323892127
36.5,-0.0017747881513997
36.75,-0.0672117496374076
37.0,-0.1098831849078974
37.25,-0.1208650121083408
37.5,-0.1045506385003715
37.75,-0.0752722928749621
38.0,-0.0496953360780375
38.25,-0.0387457790116459
38.5,-0.0429252154812202
38.75,-0.0530806225771258
39.0,-0.0559550162855004
39.25,-0.0415346889317774
39.5,-0.0084631477655722
39.75,0.0350768351212738
40.0,0.0752460500669872
40.25,0.0990672704487685
40.5,0.1002711635695914
40.75,0.0816909987337788
41.0,0.0532988869434195
41.25,0.0271661301813242
41.5,0.012017897392252
41.75,0.0100002130912829
42.0,0.0169269802504789
42.25,0.0254217613508468
42.5,0.0290038534409668
42.75,0.0249467869956491
43.0,0.0146633218250536
43.25,0.0018441349601362
43.5,-0.0102407548111544
43.75,-0.0205883890605187
44.0,-0.0304595316749275
44.25,-0.0417250250419227
44.5,-0.0547513859173923
44.75,-0.0672489118445994
45.0,-0.0748892746728589
45.25,-0.0734217511603603
45.5,-0.0611086589424698
45.75,-0.0400738991678949
46.0,-0.0157302414170907
46.25,0.0055072639618699
46.5,0.019080292935788
46.75,0.0242558563942908
47.0,0.0241964342465941
47.25,0.0241014997523808
47.5,0.028371516486978
47.75,0.0382255747263552
48.0,0.0509540759803856
48.25,0.0611590020540739
48.5,0.0633599554202343
48.75,0.0547069192135661
49.0,0.0365295244452543
49.25,0.0140347785406686
49.5,-0.0056726393386222
49.75,-0.0163502737497962
50.0,-0.014991619546584
50.25,-0.0029053011532707
50.5,0.0147990906382984
50.75,0.0309674493380554
51.0,0.0386429558451963
51.25,0.0330036476320663
51.5,0.0124853702892809
51.75,-0.0210201541763558
52.0,-0.062687553765428
52.25,-0.1056837286843838
52.5,-0.1422573851062578
52.75,-0.1649018239354317
53.0,-0.1675875146906948
53.25,-0.1470111034857171
53.5,-0.1036509568402574
53.75,-0.0422715085745952
54.0,0.0284873619835398
54.25,0.0975936342551856
54.5,0.1539624400065773
54.75,0.1890433579385923
55.0,0.1988337031160538
55.25,0.1846001163854097
55.5,0.1520201195507167
55.75,0.1090582391705603
56.0,0.0634108206209819
56.25,0.0205399150059589
56.5,-0.0169489993614883
56.75,-0.048460932228011
57.0,-0.0736927724870998
57.25,-0.0911014236551146
57.5,-0.0975694950172748
57.75,-0.0896938653224117
58.0,-0.0662423454011832
58.25,-0.0305664716877406
58.5,0.0084735733081803
58.75,0.0380379760979111
59.0,0.0452147581870263
59.25,0.0220629784371067
59.5,-0.0302007013841288
59.75,-0.0998000605931796
60.0,-0.1667807893186199
60.25,-0.2087216560598415
60.5,-0.2079430400488336
60.75,-0.1576685832972732
61.0,-0.0648732952857241
61.25,0.0512751078137382
61.5,0.1648752616367031
61.75,0.2507588780211772
62.0,0.2914331363511075
62.25,0.2812850139668471
62.5,0.2269291682385108
62.75,0.1439840385271867
63.0,0.0517263259134782
63.25,-0.032397412242071
63.5,-0.0966483096692943
63.75,-0.1363134577326901
64.0,-0.1525436224393291
64.25,-0.1496500954702654
64.5,-0.132215761571699
64.75,-0.103250439132436
65.0,-0.0640486585881109
65.25,-0.0156208246875534
65.5,0.0391431789238675
65.75,0.0937922336925116
66.0,0.1382077110670892
66.25,0.160563291442052
66.5,0.150952699459357
66.75,0.105449574749101
67.0,0.0289430698111421
67.25,-0.0646672736679902
67.5,-0.1554424401690944
67.75,-0.2228253370156545
68.0,-0.251712060478653
68.25,-0.2369423913647175
68.5,-0.1844636305627512
68.75,-0.1086871882464678
69.0,-0.0270959697597802
69.25,0.0457012198578667
69.5,0.1020660134634435
69.75,0.1420263745192651
70.0,0.1705636601211455
70.25,0.1930145584209043
70.5,0.2109201663195666
70.75,0.2203609366098353
71.0,0.2135659121985076
71.25,0.1829813968150594
71.5,0.1257973443353658
71.75,0.0467182113701865
72.0,-0.0423928096087308
72.25,-0.1259022117467081
72.5,-0.1893609930506851
72.75,-0.2239210652135196
73.0,-0.2284606103625315
73.25,-0.2087769441530078
73.5,-0.1744996005080572
73.75,-0.1352401935205351
74.0,-0.0975824517888896
74.25,-0.063890333413223
74.5,-0.0329731374219856
74.75,-0.0018861576850431
75.0,0.0321140183552755
75.25,0.0701892573421887
75.5,0.1113419375962372
75.75,0.152454423358861
76.0,0.1886519735356377
76.25,0.2138632061600312
76.5,0.2216807605889116
76.75,0.2066714213449339
77.0,0.1660556294565158
77.25,0.1012970248576446
77.5,0.018884229678168
77.75,-0.0703109338001672
78.0,-0.1532112810131798
78.25,-0.2176665512625876
78.5,-0.2554351146467755
78.75,-0.2638687084484977
79.0,-0.2456692577401987
79.25,-0.2069355735365065
79.5,-0.1544826388264262
79.75,-0.0937046633186039
80.0,-0.0279098296412517
80.25,0.0407487729064157
80.5,0.1094719227204812
80.75,0.1733267231598319
81.0,0.225087491936619
81.25,0.256714513536312
81.5,0.2619057155566544
81.75,0.2385621787610757
82.0,0.1899935829085534
82.25,0.1242542087717873
82.5,0.0518537476439004
82.75,-0.0171941450183866
83.0,-0.0757794495064062
83.25,-0.1206781438100213
83.5,-0.1519329077392414
83.75,-0.1711824249913635
84.0,-0.1798943317135591
84.25,-0.1783761011646501
84.5,-0.165952476878186
84.75,-0.1420732804234228
85.0,-0.1076597690623083
85.25,-0.065912296768814
85.5,-0.0220964488400869
85.75,0.0176688949098958
86.0,0.0481306380011519
86.25,0.0664186232819719
86.5,0.0727618648062769
86.75,0.0701676328048751
87.0,0.0632612664811895
87.25,0.0567930207768001
87.5,0.0543772896972213
87.75,0.0578381522815721
88.0,0.0672071013940938
88.25,0.081124103678721
88.5,0.0972761536656757
88.75,0.1126174207612785
89.0,0.123380570701882
89.25,0.1251504488848026
89.5,0.1133607700297051
89.75,0.0844058896487679
90.0,0.0371876935741826
90.25,-0.025473120796876
90.5,-0.0963099605429292
90.75,-0.1645251105095594
91.0,-0.2181649071991986
91.25,-0.2473030158539316
91.5,-0.2469030723136405
91.75,-0.2182251126961463
92.0,-0.1681704458379152
92.25,-0.1068217271461745
92.5,-0.0442272626254811
92.75,0.0122035873262924
93.0,0.0586732624281515
93.25,0.0941781705104886
93.5,0.1186824814288995
93.75,0.1315787561166101
94.0,0.1315108049408342
94.25,0.117767448683347
94.5,0.0924018864202965
94.75,0.0615946976427101
95.0,0.0349771583978769
95.25,0.022642002543311
95.5,0.0308986775256718
95.75,0.0587544069020109
96.0,0.0970513691693567
96.25,0.1310840056761031
96.5,0.1458556564240813
96.75,0.1317559283061596
97.0,0.0881042981333278
97.25,0.0229549952456347
97.5,-0.05064086196673
97.75,-0.1199822541188715
98.0,-0.1769884424935114
98.25,-0.2193657701531273
98.5,-0.2483902787504534
98.75,-0.2649268366293678
99.0,-0.2663139957208202
99.25,-0.2462676646953905
99.5,-0.1982091225997523
99.75,-0.1203390195244158
100.0,-0.0195281175111544
100.25,0.0885593731000204
100.5,0.18384136805419
100.75,0.2489982488838694
101.0,0.2760724479398547
101.25,0.2691235857247676
101.5,0.2414074607995398
101.75,0.2083077714794616
102.0,0.1795103222238443
102.25,0.1544418028286243
102.5,0.1234377565838836
102.75,0.0741903868878648
103.0,0.0002340516978669
103.25,-0.0929805192066653
103.5,-0.1878127191695291
103.75,-0.2605039171209053
104.0,-0.2909268672804372
104.25,-0.2714002011581372
104.5,-0.2102895880671314
104.75,-0.1285894378073986
105.0,-0.0510622447743045
105.25,0.0038827673190109
105.5,0.0308553960982056
105.75,0.0377545455899351
106.0,0.039870652090846
106.25,0.0510111889091362
106.5,0.0761395994178896
106.75,0.1090651261299496
107.0,0.136066028746011
107.25,0.1433500319910708
107.5,0.1244412521653835
107.75,0.0837817162349773
108.0,0.0348613840902838
108.25,-0.0060404604766408
108.5,-0.027307345214094
108.75,-0.026986314062367
109.0,-0.0130396045709437
109.25,0.0010592032420071
109.5,0.0030746287486942
109.75,-0.0121900383546879
110.0,-0.0406957763925926
110.25,-0.0713822265592494
110.5,-0.0915071320514531
110.75,-0.0924843954938106
111.0,-0.073566984059287
111.25,-0.0418997676940034
111.5,-0.009197091021784
111.75,0.0132580866892096
112.0,0.0190531235528567
112.25,0.0087665655820228
112.5,-0.0108208552107212
112.75,-0.0297707500767113
113.0,-0.0388448964164325
113.25,-0.032653936477082
113.5,-0.0111019668548635
113.75,0.0210702425155884
114.0,0.0561486301724741
114.25,0.0858755568723481
114.5,0.1036406104901496
114.75,0.1059116555927218
115.0,0.0927304452428792
115.25,0.0673610178966988
115.5,0.0353152166111523
115.75,0.0030207142686279
116.0,-0.0235992048912995
116.25,-0.0403655925370818
116.5,-0.0456504608234509
116.75,-0.0405609572090878
117.0,-0.0284453509890238
117.25,-0.0138491169845391
117.5,-0.001224772385151
117.75,0.0062082481304535
118.0,0.0070992666253653
118.25,0.0019200022270567
118.5,-0.007687098717037
118.75,-0.0198537593151321
119.0,-0.0332937293676713
119.25,-0.0476012786232221
119.5,-0.0628926181906617
119.75,-0.0789516504295225
120.0,-0.094305923891226
120.25,-0.1057527636143434
120.5,-0.1087142959082191
120.75,-0.0984588194379745
121.0,-0.0718192167388156
121.25,-0.0287510237505579
121.5,0.0269454299499188
121.75,0.0881239626524221
122.0,0.1459065319362781
122.25,0.1918323311845077
122.5,0.2197347905511666
122.75,0.2266824813596625
123.0,0.2127773513125826
123.25,0.1801528942940123
123.5,0.1318717680232695
123.75,0.0713896642215145
124.0,0.0028337672373769
124.25,-0.0682408695902958
124.5,-0.1343744896940435
124.75,-0.186752359276855
125.0,-0.2170390135748051
125.25,-0.2200076915358874
125.5,-0.1958623542128965
125.75,-0.151034978540609
126.0,-0.0967590544417988
126.25,-0.0456803598819145
126.5,-0.0077235509735605
126.75,0.0130978572178906
127.0,0.0195374355888446
127.25,0.0192220640574946
127.5,0.0208152554374045
127.75,0.0299393781134283
128.0,0.0466869289107456
128.25,0.0658307222012759
128.5,0.0795982476950921
128.75,0.0816864956049526
129.0,0.0706183291671049
129.25,0.0508484665539249
129.5,0.0310687025314294
129.75,0.0204491873723944
130.0,0.0244910364968148
130.25,0.0423352485184381
130.5,0.0667169265465243
130.75,0.0865905935991302
131.0,0.0913143960271729
131.25,0.0746639310538839
131.5,0.0370903121876056
131.75,-0.014563716993441
132.0,-0.0696025558095441
132.25,-0.1171084084421662
132.5,-0.1491743511809024
132.75,-0.1625659332212832
133.0,-0.1584104622486047
133.25,-0.1403814076366264
133.5,-0.112433894727751
133.75,-0.0772244466961013
134.0,-0.035912029406607
134.25,0.0106958304618183
134.5,0.0603826942008961
134.75,0.1082223863363677
135.0,0.1466433756821077
135.25,0.1671480317850865
135.5,0.1631764218012305
135.75,0.1329784591361375
136.0,0.0812060310609964
136.25,0.0183616729631025
136.5,-0.0419104962960547
136.75,-0.0867902695967735
137.0,-0.1080316738967758
137.25,-0.1040781993508609
137.5,-0.0797981231437462
137.75,-0.0441017687881035
138.0,-0.0065797189996918
138.25,0.0253648089908071
138.5,0.047784040113729
138.75,0.0596324412293091
139.0,0.0611193534540175
139.25,0.0522153720528971
139.5,0.0323733284859419
139.75,0.0017203869004554
140.0,-0.03701411252766
140.25,-0.0771951006032172
140.5,-0.1088336002734578
140.75,-0.1213443959184067
141.0,-0.1076427776158272
141.25,-0.0677927881999528
141.5,-0.0103233005783845
141.75,0.0498061219326568
142.0,0.0961315951607791
142.25,0.1166470568183281
142.5,0.1083174501255412
142.75,0.078149619201959
143.0,0.040258504207324
143.25,0.0100996708134021
143.5,-0.0017190102110932
143.75,0.006544119717897
144.0,0.0275416976652128
144.25,0.0483763037057603
144.5,0.0562677373569701
144.75,0.0438817976326477
145.0,0.0121215310680739
145.25,-0.0306203517800148
145.5,-0.0721943850676999
145.75,-0.1016414014598817
146.0,-0.1132023718529764
146.25,-0.1077994019930197
146.5,-0.09158857860741
146.75,-0.0724597504036897
147.0,-0.0561743764359509
147.25,-0.0438824650705352
147.5,-0.0320717716420138
147.75,-0.0149003395552183
148.0,0.0121845164487166
148.25,0.0492075192734208
148.5,0.0903419586426881
148.75,0.1252550454273287
149.0,0.1427494361263015
149.25,0.1353043426285287
149.5,0.1026251956122132
149.75,0.0525866963578895
150.0,-0.0010571990783516
150.25,-0.0434842312097616
150.5,-0.0642846516331982
150.75,-0.0613403536946836
151.0,-0.0413809263667706
151.25,-0.0168537188361846
151.5,-0.0003613253873492
151.75,0.0009290436939376
152.0,-0.0116166126214968
152.25,-0.0289705461124773
152.5,-0.0389737681730423
152.75,-0.0324912734757703
153.0,-0.0083220059694364
153.25,0.0255119020763721
153.5,0.0548310722502216
153.75,0.0654175915637053
154.0,0.0494218758948209
154.25,0.0091217926311229
154.5,-0.0436837347809183
154.75,-0.0923381149056806
155.0,-0.121884219622244
155.25,-0.1245598805079459
155.5,-0.1019036549358531
155.75,-0.0628390281404592
156.0,-0.0190021686249004
156.25,0.0202585486808308
156.5,0.0508790596909324
156.75,0.0739605883897771
157.0,0.0930748342874192
157.25,0.1107497794252224
157.5,0.1260968141452266
157.75,0.1347244120172506
158.0,0.1307734782678999
158.25,0.1098407673083844
158.5,0.0712621683267159
158.75,0.0187642576038826
159.0,-0.0405450204934587
159.25,-0.0980808915567931
159.5,-0.1456089133512393
159.75,-0.1764176311980717
160.0,-0.185895001285223
160.25,-0.1719628746676372
160.5,-0.1357068765317129
160.75,-0.0820217983645323
161.0,-0.0195981040556838
161.25,0.0404499707941665
161.5,0.0874162144808289
161.75,0.1144553597282513
162.0,0.1211154689945826
162.25,0.1134744208705415
162.5,0.1013714271752783
162.75,0.093681871061223
163.0,0.0937637496350721
163.25,0.0973954708620681
163.5,0.0944967591082154
163.75,0.0741060616524331
164.0,0.0303828799626828
164.25,-0.0332770777571332
164.5,-0.10416343466677
164.75,-0.1644791787773509
165.0,-0.1980729841478111
165.25,-0.196656616413278
165.5,-0.1627433154634362
165.75,-0.108129205124644
166.0,-0.0488356352409207
166.25,0.0010244349907699
166.5,0.0337352763702663
166.75,0.0491694357227273
167.0,0.0527717567938124
167.25,0.0518937832681866
167.5,0.0524999376098205
167.75,0.0576105003324149
168.0,0.0675814646824177
168.25,0.0812539668267442
168.5,0.0967499040471865
168.75,0.1113150665520923
169.0,0.1206267715394547
169.25,0.1186624608275199
169.5,0.0990659314921795
169.75,0.0579918725875552
170.0,-0.0027655844128137
170.25,-0.074179181283771
170.5,-0.1413326642074331
170.75,-0.1877584150893831
171.0,-0.2012276078296418
171.25,-0.1784927030984616
171.5,-0.1267486695522459
171.75,-0.0610112970428362
172.0,0.0014924411435872
172.25,0.0474377146927199
172.5,0.0713689008690635
172.75,0.0759995229879154
173.0,0.0691393564345264
173.25,0.0590935327872342
173.5,0.0508905169349101
173.75,0.0449813697417519
174.0,0.0385845199736014
174.25,0.0284706378229529
174.5,0.0134200767728588
174.75,-0.0049400583590139
175.0,-0.0230806892943208
175.25,-0.0373930211434945
175.5,-0.0456079281709077
175.75,-0.0470093477053253
176.0,-0.0415971590608368
176.25,-0.0291373752250391
176.5,-0.0091169150679787
176.75,0.0180683900672365
177.0,0.0493793159318264
177.25,0.0782021489222946
177.5,0.0953863723268065
177.75,0.0923947554766806
178.0,0.0653907710869322
178.25,0.0182477888717326
178.5,-0.0373374578029096
178.75,-0.0852060494744868
179.0,-0.1104624365505076
179.25,-0.1051918331194282
179.5,-0.0716498161585383
179.75,-0.0214887783241762
180.0,0.0286274242306722
180.25,0.0630748579008134
180.5,0.0724219773632466
180.75,0.0557342066573849
181.0,0.0195489613503541
181.25,-0.0254398132955006
181.5,-0.0681412351972788
181.75,-0.0996585552162415
182.0,-0.1141137076944694
182.25,-0.1082395794981545
182.5,-0.0808571007568088
182.75,-0.0330986164847061
183.0,0.0306195092425757
183.25,0.1017362764210896
183.5,0.1679395049676653
183.75,0.2154290508920076
184.0,0.2326093641571369
184.25,0.2138037868280736
184.5,0.1613025408185371
184.75,0.0846865077561899
185.0,-0.0023813309443376
185.25,-0.0864891301336223
185.5,-0.1580011417716251
185.75,-0.2123013182467748
186.0,-0.2484938105053317
186.25,-0.266622802996619
186.5,-0.2652113883038872
186.75,-0.240683360338025
187.0,-0.1891533851560146
187.25,-0.1097225945165089
187.5,-0.0075065632750717
187.75,0.1053755975807206
188.0,0.2117087196331502
188.25,0.2934793531247023
188.5,0.3369194320112766
188.75,0.3362856499866908
189.0,0.2949245132844759
189.25,0.2233642706403261
189.5,0.1354204125886672
189.75,0.0440331594760081
190.0,-0.0415208513688502
190.25,-0.1161897180425489
190.5,-0.1777202971917021
190.75,-0.2243690623910122
191.0,-0.2531690916592375
191.25,-0.259787402940612
191.5,-0.2401523845661596
191.75,-0.193107532179506
192.0,-0.1227651166182914
192.25,-0.0392443725602027
192.5,0.0429145503102211
192.75,0.1084087363777122
193.0,0.145724177687139
193.25,0.1508976799173896
193.5,0.1289581181261671
193.75,0.0923087987259978
194.0,0.0564657267205119
194.25,0.0346301948503546
194.5,0.0331011955566631
194.75,0.0492702709216471
195.0,0.0729564832630613
195.25,0.0905187053296504
195.5,0.0900819790001014
195.75,0.0658161336853489
196.0,0.0196879805711828
196.25,-0.0397485283590194
196.5,-0.1006891914305778
196.75,-0.151903414338849
