Time (s),Wave elevation (m)
0.0,1.0714784388614034
0.25,1.0714784388614034
0.5,1.1314386300230077
0.75,1.1536297809802425
1.0,1.1374633035435513
1.25,1.0857185331952304
1.5,1.0039103834059382
1.75,0.8991985226419904
2.0,0.7790975818118987
2.25,0.6502781236459751
2.5,0.5177120914348525
2.75,0.3843245704827726
3.0,0.2511885048780715
3.25,0.1181699771818255
3.5,-0.0151715729235678
3.75,-0.148678044909972
4.0,-0.2809257213860001
4.25,-0.408975383137789
4.5,-0.5286109126502341
4.75,-0.635013276781095
5.0,-0.7237043140190649
5.25,-0.7915209176849809
5.5,-0.8373628634062364
5.75,-0.8625017712937448
6.0,-0.8703356217111189
6.25,-0.8656018351989615
6.5,-0.8531935895533076
6.75,-0.8368288677461615
7.0,-0.8178750615906375
7.25,-0.794619905567457
7.5,-0.7622021505502555
7.75,-0.7132869539561921
8.0,-0.6394170596314392
8.25,-0.5328231435152523
8.5,-0.3883663533365031
8.75,-0.205237136929097
9.0,0.0119411815757733
9.25,0.2528608360376803
9.5,0.5022387959752076
9.75,0.7414222003764268
10.0,0.9506604202201324
10.25,1.111688869194422
10.5,1.2102083034217102
10.75,1.2378573038776248
11.0,1.1933617220425663
11.25,1.082686093391516
11.5,0.9181811965535704
11.75,0.7168872477683651
12.0,0.498283588176393
12.25,0.2818506112004131
12.5,0.0848172226514375
12.75,-0.0795902365160439
13.0,-0.2031893064889586
13.25,-0.2830992307437376
13.5,-0.3212761162345239
13.75,-0.3234958699013854
14.0,-0.2980218811480152
14.25,-0.2542097922609797
14.5,-0.2012687771093864
14.75,-0.1473299171229817
15.0,-0.0988860728535021
15.25,-0.0605843607540298
15.5,-0.0352893970765737
15.75,-0.0243038647579288
16.0,-0.0276353111676409
16.25,-0.0442286996935114
16.5,-0.0721310876238737
16.75,-0.1086028666356858
17.0,-0.1502251473119898
17.25,-0.1930653395003878
17.5,-0.2329496928092926
17.75,-0.2658566983818252
18.0,-0.2883990504111565
18.25,-0.2983179195794909
18.5,-0.2948850435946685
18.75,-0.2791053989556323
19.0,-0.2536395357331331
19.25,-0.2224162102865126
19.5,-0.1899721948385135
19.75,-0.1606221099664618
20.0,-0.1376108513551253
20.25,-0.1224214746184134
20.5,-0.1143950905546374
20.75,-0.1107672155085883
21.0,-0.107146096733347
21.25,-0.0983682823649133
21.5,-0.079583953330321
21.75,-0.0473674102658336
22.0,-0.0006300544403657
22.25,0.0588601094883483
22.5,0.1264805599975172
22.75,0.1953093413834656
23.0,0.2571577159383574
23.25,0.3039093137676005
23.5,0.3289297747257292
23.75,0.3282902976693232
24.0,0.3015771470496719
24.25,0.2521319955529592
24.5,0.1866710552515532
24.75,0.1143441994267541
25.0,0.0453965941305418
25.25,-0.0103349049836273
25.5,-0.0448333844772377
25.75,-0.0529882917759702
26.0,-0.0331905832806198
26.25,0.0126332871083636
26.5,0.0795130273821874
26.75,0.1603228125940463
27.0,0.246873835637551
27.25,0.3309969480935751
27.5,0.4054238042121499
27.75,0.4643352680389311
28.0,0.5035297626787382
28.25,0.5202529977286703
28.5,0.5128048643635338
28.75,0.4800835409752498
29.0,0.4212320931563753
29.25,0.3355187136220013
29.5,0.2225163522157609
29.75,0.0825656093242992
30.0,-0.0825753611156121
30.25,-0.2690507588724297
30.5,-0.470381022654452
30.75,-0.6772623113714265
31.0,-0.8778123953339838
31.25,-1.0583042935658693
31.5,-1.204336357313071
31.75,-1.302299972724372
32.0,-1.3409409663584222
32.25,-1.3127810943562497
32.5,-1.2151777428414443
32.75,-1.0508512497180704
33.0,-0.8277906893401256
33.25,-0.5585456324215294
33.5,-0.2590058431260263
33.75,0.0531535375735631
34.0,0.3601397691843422
34.25,0.6455958381059416
34.5,0.8958436334123098
34.75,1.100683251784406
35.0,1.2536945839438067
35.25,1.352070173305199
35.5,1.39607952192146
35.75,1.3883128779851732
36.0,1.3328702915065525
36.25,1.234648402146091
36.5,1.0988376761367156
36.75,0.9306857092367036
37.0,0.7355193442569012
37.25,0.5189615948696005
37.5,0.2872387913156166
37.75,0.0474555939912038
38.0,-0.1922771772449172
38.25,-0.4229467829737851
38.5,-0.635012764490344
38.75,-0.8190338366531844
39.0,-0.9664766323565664
39.25,-1.0705927234177024
39.5,-1.1272258002069149
39.75,-1.1354089564983998
40.0,-1.0976336041481
40.25,-1.0197139636813457
40.5,-0.9102284914736196
40.75,-0.7795837766611733
41.0,-0.6388078417792106
41.25,-0.4982288572975544
41.5,-0.3662237758810643
41.75,-0.2482235793849468
42.0,-0.1461355010449071
42.25,-0.0582896484231673
42.5,0.0200559764292964
42.75,0.0957021920341823
43.0,0.1761197230582966
43.25,0.2678849904959106
43.5,0.3751818312705012
43.75,0.4986157061451423
44.0,0.6345530250947079
44.25,0.7751274935485729
44.5,0.9089566945087988
44.75,1.02249976112513
45.0,1.101878735145825
45.25,1.1349005054073031
45.5,1.112969024218065
45.75,1.032579216200265
46.0,0.8961372132504828
46.25,0.7119500112063839
46.5,0.493356762959156
46.75,0.2571128908041987
47.0,0.0212633904326771
47.25,-0.197169189227007
47.5,-0.384320397613012
47.75,-0.5311061705641251
48.0,-0.6340776831962088
48.25,-0.6953825488396299
48.5,-0.7218570955372243
48.75,-0.7234219170943575
49.0,-0.7110703732233414
49.25,-0.6948057547634877
49.5,-0.6818851988486713
49.75,-0.6756666069279047
50.0,-0.6752402599037133
50.25,-0.6758809876883415
50.5,-0.6702070470635014
50.75,-0.6498064225235424
51.0,-0.6070134774690126
51.25,-0.5365028004473953
51.5,-0.4364146452837812
51.75,-0.3088269776286892
52.0,-0.1595218491827506
52.25,0.0028684905241893
52.5,0.1681354194021703
52.75,0.3259179546430032
53.0,0.4669962817590844
53.25,0.5842223532355554
53.5,0.6729506135416907
53.75,0.7309528552545471
54.0,0.7579204251351086
54.25,0.754747785165621
54.5,0.7228333686885896
54.75,0.6636171250778667
55.0,0.5785025480181907
55.25,0.4692003102147271
55.5,0.338406160891441
55.75,0.1906167175734336
56.0,0.0328200397966177
56.25,-0.1252081717227993
56.5,-0.2712116494815847
56.75,-0.3914552411182695
57.0,-0.4723599492602115
57.25,-0.5025538575891458
57.5,-0.4749957681452772
57.75,-0.3887629629312239
58.0,-0.2501082367241303
58.25,-0.0724876495254507
58.5,0.1245741793844035
58.75,0.3177084244952008
59.0,0.482734943083587
59.25,0.5980528119184976
59.5,0.647841623899495
59.75,0.6245268433895433
60.0,0.5300635169719166
60.25,0.3757797425337634
60.5,0.18076272487151
60.75,-0.0309772081917391
61.0,-0.2341121380650947
61.25,-0.4057784610349533
61.5,-0.5289052096219511
61.75,-0.5945343795135002
62.0,-0.6027542220740708
62.25,-0.562110333510808
62.5,-0.487627378320055
62.75,-0.3978173418815007
63.0,-0.3112237876654529
63.25,-0.2431241616120374
63.5,-0.2029711468946753
63.75,-0.1930080986779479
64.0,-0.2082708644646048
64.25,-0.2379310423899715
64.5,-0.2676920886601084
64.75,-0.2827645440747337
65.0,-0.270853193171449
65.25,-0.2246025778602703
65.5,-0.14306292895949
65.75,-0.031932153938337
66.0,0.097437170134135
66.25,0.2300485237596101
66.5,0.349891856882648
66.75,0.4426948384167611
67.0,0.498291523761634
67.25,0.5121942339567559
67.5,0.4861172785289689
67.75,0.4274041716011904
68.0,0.3475133133556237
68.25,0.2598823206657594
68.5,0.1775886801658816
68.75,0.111238743795294
69.0,0.0674494966302104
69.25,0.0481549344091654
69.5,0.0508000176835687
69.75,0.0693144335953792
70.0,0.095618915312213
70.25,0.1213340236259795
70.5,0.1393480695913381
70.75,0.1449558331375273
71.0,0.136388031101859
71.25,0.1146883570332372
71.5,0.083031143026125
71.75,0.0456806911499215
72.0,0.0068526197040291
72.25,-0.0302613506638057
72.5,-0.0640979992287905
72.75,-0.0948448508890145
73.0,-0.1240828666992578
73.25,-0.1540609583471641
73.5,-0.186793486270661
73.75,-0.2232069483529785
74.0,-0.2625463848323969
74.25,-0.3021904598173436
74.5,-0.3379310550001699
74.75,-0.3646690679073985
75.0,-0.3773852678264086
75.25,-0.3721829686247906
75.5,-0.3471805576199822
75.75,-0.3030599672494837
76.0,-0.2431456825077483
76.25,-0.1729833500309605
76.5,-0.0994879574199257
76.75,-0.0298183734176648
77.0,0.029809547902359
77.25,0.0751458383885042
77.5,0.1045708720058902
77.75,0.1192757849944588
78.0,0.1229258036640589
78.25,0.120871516877468
78.5,0.1190578054213376
78.75,0.1228354674806469
79.0,0.1358966339308564
79.25,0.1595296529496526
79.5,0.1923279436845372
79.75,0.2304026250070904
80.0,0.2680567692601552
80.25,0.2987969594767269
80.5,0.3165000675412454
80.75,0.3165294087772186
81.0,0.2966076697436359
81.25,0.2573004297105691
81.5,0.2020340973137938
81.75,0.1366523286083005
82.0,0.0685910447767796
82.25,0.0058111590466168
82.5,-0.0443390311757245
82.75,-0.0761570513053441
83.0,-0.0863660251129833
83.25,-0.0745397762386078
83.5,-0.0431321726136713
83.75,0.0028688660715245
84.0,0.0565897025680341
84.25,0.1101127699128465
84.5,0.1553878006939123
84.75,0.1850941694719831
85.0,0.1933589040629675
85.25,0.176268784086924
85.5,0.1321523748172362
85.75,0.0616417492323173
86.0,-0.0324514328834718
86.25,-0.1453978548708661
86.5,-0.2709019816606409
86.75,-0.4015033363936277
87.0,-0.5290022676684482
87.25,-0.6448997208305581
87.5,-0.7408513532486547
87.75,-0.8091399252375621
88.0,-0.8431650888893818
88.25,-0.8379375734529115
88.5,-0.7905484157323441
88.75,-0.7005677310195231
89.0,-0.5703163800610003
89.25,-0.4049519260903722
89.5,-0.2123200660719217
89.75,-0.0025445797373907
90.0,0.2126394200263678
90.25,0.4207670050991451
90.5,0.6096613196313229
90.75,0.7684803210877167
91.0,0.8886691458540861
91.25,0.9646968143899568
91.5,0.994477103045958
91.75,0.979411946828316
92.0,0.9240467391155476
92.25,0.8353828041359781
92.5,0.7219441212836476
92.75,0.5927340935484777
93.0,0.4562364224173235
93.25,0.3196076855483282
93.5,0.1881777663996629
93.75,0.0653219933836531
94.0,-0.0472962038472868
94.25,-0.1491802629372556
94.5,-0.2402782051926646
94.75,-0.3202444289063972
95.0,-0.3878546176696827
95.25,-0.4407189754055063
95.5,-0.4753861400605698
95.75,-0.4878561790596863
96.0,-0.4744383246018288
96.25,-0.432812251503071
96.5,-0.3630953016772529
96.75,-0.2686939241128883
97.0,-0.1567324772451673
97.25,-0.0379066128923987
97.5,0.0743050711829002
97.75,0.1650315158178983
98.0,0.219854030116869
98.25,0.2268657216642116
98.5,0.1786468205715417
98.75,0.0738431808011164
99.0,-0.0819289049933456
99.25,-0.2760459816378826
99.5,-0.4897852910343547
99.75,-0.700117751802265
100.0,-0.8821935053776965
100.25,-1.012218252213832
100.5,-1.0703508660806464
100.75,-1.043237823110604
101.0,-0.9258408942191866
101.25,-0.7223056610314714
101.5,-0.4457462500341529
101.75,-0.1169671618787191
102.0,0.237715368278279
102.25,0.5892730213461637
102.5,0.909030555637266
102.75,1.1716157470920563
103.0,1.3574408796379809
103.25,1.4544368378325765
103.5,1.4588693493167908
103.75,1.3751927155506984
104.0,1.2150209818104818
104.25,0.9954027619108864
104.5,0.736660437692731
104.75,0.4600892308748722
105.0,0.1858048936579402
105.25,-0.0690154183389607
105.5,-0.2913272544202158
105.75,-0.472765402316285
106.0,-0.6095529666777059
106.25,-0.7018667312246017
106.5,-0.7528169011727587
106.75,-0.7672375194840754
107.0,-0.7504927965701272
107.25,-0.7074850025172291
107.5,-0.6420055406923886
107.75,-0.556509120731024
108.0,-0.4523201380259786
108.25,-0.3302098416781689
108.5,-0.1912218932348692
108.75,-0.037580661467319
109.0,0.126502729912705
109.25,0.2943035288590377
109.5,0.4564770330897486
109.75,0.6014546951259685
110.0,0.7163481811165122
110.25,0.7882838053445197
110.5,0.8060118855099373
110.75,0.7615752459427128
111.0,0.6517891742283667
111.25,0.4792890847953626
111.5,0.2529444918038047
111.75,-0.0124847257950081
112.0,-0.2974707111302921
112.25,-0.5795252029909282
112.5,-0.8354905234575586
112.75,-1.0440278422199012
113.0,-1.1879713879364444
113.25,-1.256221048592091
113.5,-1.244900790390302
113.75,-1.1576103188096087
114.0,-1.0047282590295423
114.25,-0.8018667450057549
114.5,-0.5677068010977794
114.75,-0.3215394900942622
115.0,-0.0808826622781898
115.25,0.1404714223439194
115.5,0.3336950375789192
115.75,0.4952874470181641
116.0,0.626544409056432
116.25,0.7322671500401006
116.5,0.8189688378884985
116.75,0.8929171489518749
117.0,0.9583729809400832
117.25,1.0163440294684738
117.5,1.0640752342743185
117.75,1.0953632818831558
118.0,1.1016334602065103
118.25,1.0735806585404788
118.5,1.0030762814709686
118.75,0.8849966509132843
119.0,0.7186436214205435
119.25,0.5085010358378833
119.5,0.2641873944080918
119.75,-0.0003958229493643
120.0,-0.2685844247453745
120.25,-0.522895003176791
120.5,-0.7470818899460694
120.75,-0.9279883977641148
121.0,-1.0569183242910134
121.25,-1.1303431796718322
121.5,-1.1498766552527346
121.75,-1.1215687811272146
122.0,-1.0546765871568706
122.25,-0.9601386828166244
122.5,-0.8490080194906934
122.75,-0.7310788803278983
123.0,-0.6138879217845467
123.25,-0.502188407090251
123.5,-0.3979085805424356
123.75,-0.300526258258852
124.0,-0.2077355586455129
124.25,-0.1162558613414711
124.5,-0.0226383238872883
124.75,0.0760440268787917
125.0,0.1816907237849008
125.25,0.2948720544895292
125.5,0.4147098112149457
125.75,0.5388952986732184
126.0,0.6637946344448615
126.25,0.7846038878435946
126.5,0.8955396981853732
126.75,0.9900756383456266
127.0,1.0612516679794184
127.25,1.1020868268855282
127.5,1.106111238588512
127.75,1.0680047654398768
128.0,0.9842929197591622
128.25,0.8540153963741174
128.5,0.6792589497859102
128.75,0.4654425024956377
129.0,0.2212625324301357
129.25,-0.0417501435123997
129.5,-0.3100515688184687
129.75,-0.5692080028990888
130.0,-0.8051875657235332
130.25,-1.0056477430629174
130.5,-1.161036326144914
130.75,-1.2653456991957124
131.0,-1.3164125023120832
131.25,-1.3157279601569971
131.5,-1.2678054382408377
131.75,-1.179225931670465
132.0,-1.0575350618291377
132.25,-0.9101864471461496
132.5,-0.7437116713407215
132.75,-0.5632490446073961
133.0,-0.3724909672225427
133.25,-0.1740267490271896
133.5,0.0300199109670129
133.75,0.2372170502421932
134.0,0.4440987568603805
134.25,0.6456624736262653
134.5,0.8352202263707397
134.75,1.004665300692821
135.0,1.1451343169102266
135.25,1.2479665057369644
135.5,1.3058020604642064
135.75,1.3136309132417523
136.0,1.2696076427806788
136.25,1.1754863252004406
136.5,1.0365935569093525
136.75,0.8613364223211936
137.0,0.6603203091440801
137.25,0.4452150745543471
137.5,0.2275460647896287
137.75,0.017592822490763
138.0,-0.1764471225423262
138.25,-0.3489235250266385
138.5,-0.4967893707462584
138.75,-0.6192798613031724
139.0,-0.7173081470604913
139.25,-0.7927130394870742
139.5,-0.8475092640386326
139.75,-0.8832785986365995
140.0,-0.9008041276255432
140.25,-0.8999975552150975
140.5,-0.8801112660730779
140.75,-0.8401733017060165
141.0,-0.7795439151365406
141.25,-0.6984731510176454
141.5,-0.5985423198838488
141.75,-0.4828965306960484
142.0,-0.3562153013178897
142.25,-0.2244159610751415
142.5,-0.0941314513834756
142.75,0.027957797487519
143.0,0.135835042160401
143.25,0.2247934602926403
143.5,0.2919223581257675
143.75,0.3363661416692721
144.0,0.3593262841204254
144.25,0.3638168349906854
144.5,0.3542203903744406
144.75,0.3357180910045083
145.0,0.3136802753268855
145.25,0.2931025056762639
145.5,0.2781560236431378
145.75,0.2718957896564149
146.0,0.2761382643651734
146.25,0.2914908474053478
146.5,0.3174909391833195
146.75,0.3527991879061786
147.0,0.3953908452286013
147.25,0.4427010456933498
147.5,0.4917015647089404
147.75,0.5389135030260948
148.0,0.5803865071026594
148.25,0.6116945686168008
148.5,0.6280062131660727
148.75,0.624280150426733
149.0,0.5956162018339421
149.25,0.5377585900366789
149.5,0.4477102230354635
149.75,0.3243799963138332
150.0,0.1691583855262209
150.25,-0.0136933853199262
150.5,-0.2169442473072893
150.75,-0.4306552289735464
151.0,-0.6428227811292798
151.25,-0.840362844198259
151.5,-1.0103340566379992
151.75,-1.1412489609165015
152.0,-1.224294207324696
152.25,-1.2542816087255242
152.5,-1.230183592642915
152.75,-1.1551655591216914
153.0,-1.0361048676740243
153.25,-0.882668548349312
153.5,-0.7060944635799141
153.75,-0.5178696431387834
154.0,-0.3285147743685265
154.25,-0.1466612691391489
154.5,0.021449968688132
154.75,0.1720009538603435
155.0,0.3032044488922602
155.25,0.4146143233241159
155.5,0.5063230548830472
155.75,0.5782506762485189
156.0,0.6297061133076147
156.25,0.6593388363872322
156.5,0.6655077955920957
156.75,0.6469938315666715
157.0,0.603892177819559
157.25,0.5384630664412492
157.5,0.4557051489587985
157.75,0.3634540878097783
158.0,0.2718925728611021
158.25,0.1924735692362097
158.5,0.1363837746332208
158.75,0.1127837368277592
159.0,0.1271312813122624
159.25,0.1799089239491741
159.5,0.2660273680467263
159.75,0.3750719004570141
160.0,0.4924141277762494
160.25,0.6010543746446171
160.5,0.6839203491611423
160.75,0.7262534123047549
161.0,0.7176851870237838
161.25,0.6536523237431952
161.5,0.5359097406015707
161.75,0.3720627751453975
162.0,0.1742165742132161
162.25,-0.0429975246962115
162.5,-0.2646458003882728
162.75,-0.4775517005172875
163.0,-0.6718159000717265
163.25,-0.8415350681582637
163.5,-0.9846235759463238
163.75,-1.1018282697838886
164.0,-1.1951947274317294
164.25,-1.2663594089852968
164.5,-1.3150809885877983
164.75,-1.3383762853336951
165.0,-1.3304995338777916
165.25,-1.2838225796821314
165.5,-1.1904741532678076
165.75,-1.0444196709174625
166.0,-0.8435465743438654
166.25,-0.5912903863743912
166.5,-0.2974028290628093
166.75,0.0223844097555785
167.0,0.347836196857434
167.25,0.6566385938825073
167.5,0.9273792809072076
167.75,1.1425606338985532
168.0,1.2910897692953038
168.25,1.3697656567953596
168.5,1.3834563315705732
168.75,1.3438984340185878
169.0,1.2673118316889265
169.25,1.1712534859316392
169.5,1.0712909034750948
169.75,0.9781238972922176
170.0,0.8957116895158657
170.25,0.8207814911311063
170.5,0.7438369786029093
170.75,0.6514985773304186
171.0,0.5297467489301404
171.25,0.3674552329296938
171.5,0.1595302633171695
171.75,-0.0909701516763557
172.0,-0.3721845531123777
172.25,-0.66444515142252
172.5,-0.9427994475302712
172.75,-1.1806447786598278
173.0,-1.3538494986550544
173.25,-1.444633450512337
173.5,-1.4445129146629794
173.75,-1.35577616741874
174.0,-1.1912158301883955
174.25,-0.9721553349332372
174.5,-0.7251114804071737
174.75,-0.4776768989682863
175.0,-0.2543408832947516
175.25,-0.0729702276980706
175.5,0.057456055230089
175.75,0.1374982831821707
176.0,0.1762299815144833
176.25,0.1887727279520411
176.5,0.1928840621559377
176.75,0.2052490820777794
177.0,0.2381624923946745
177.25,0.2971973902696023
177.5,0.380259313249029
177.75,0.4781578982624285
178.0,0.5765446404204299
178.25,0.6588165647204688
178.5,0.7094172236464392
178.75,0.7169073946232178
179.0,0.6762362299648091
179.25,0.5898054828660255
179.5,0.4671520791358614
179.75,0.3233328360965137
180.0,0.1763311873751352
180.25,0.0439766109503323
180.5,-0.0590563004934403
180.75,-0.1236315525567107
181.0,-0.1475068721289751
181.25,-0.1354456731218725
181.5,-0.0981004922499032
181.75,-0.0499013924075053
182.0,-0.0063521906437444
182.25,0.0187714046906507
182.5,0.0158278372375808
182.75,-0.0190862328626038
183.0,-0.0835841121173078
183.25,-0.1695465178963688
183.5,-0.2646506476487377
183.75,-0.3545715916457435
184.0,-0.4254548758045215
184.25,-0.4662313527423703
184.5,-0.4703931233071228
184.75,-0.4369590868700694
185.0,-0.3705083405974985
185.25,-0.2803207808081638
185.5,-0.1788086337549305
185.75,-0.0795269162292851
186.0,0.0048996746461918
186.25,0.0646053256219358
186.5,0.0938009645493644
186.75,0.0914150541269439
187.0,0.0610088026783033
187.25,0.0100321608095899
187.5,-0.051419478277391
187.75,-0.1121286310486439
188.0,-0.1613205283438743
188.25,-0.1900498158503736
188.5,-0.1922392959810849
188.75,-0.1652694156285195
189.0,-0.1100913281834636
189.25,-0.0309037692254814
189.5,0.0655146040128819
189.75,0.1706954938488091
190.0,0.2754636071017227
190.25,0.3708920173275844
190.5,0.4491346484883098
190.75,0.5040712068487868
191.0,0.5317314779038821
191.25,0.5304934056154629
191.5,0.5010700572046057
191.75,0.4463138029740427
192.0,0.3708728351024021
192.25,0.2807375188511251
192.5,0.1827142217407323
192.75,0.0838639400626974
193.0,-0.009056911978664
193.25,-0.090115912027487
193.5,-0.1546470486539258
193.75,-0.1995814791414313
194.0,-0.2236377936056566
194.25,-0.2273528022132932
194.5,-0.2129475464558519
194.75,-0.1840396161647303
195.0,-0.1452299639949354
195.25,-0.1016077794839029
195.5,-0.0582280919269396
195.75,-0.0196215126077359
196.0,0.0106073660726464
196.25,0.0300470814606212
196.5,0.0375835145413853
196.75,0.0333348105209501
197.0,0.0184342175973599
