Time (s),Wave elevation (m)
0.0,1.9286611899505484
0.25,1.9286611899505484
0.5,2.047275456775535
0.75,2.074806142777424
1.0,2.011828875967499
1.25,1.869142188452484
1.5,1.6647443116111815
1.75,1.419359464409568
2.0,1.151876525952502
2.25,0.876003465640153
2.5,0.5989965929391746
2.75,0.322641624998328
3.0,0.0459568400397219
3.25,-0.2314281024790206
3.5,-0.5064379630652797
3.75,-0.7712670867112547
4.0,-1.0141156354522096
4.25,-1.2217357880377944
4.5,-1.3829569837600586
4.75,-1.491996487511627
5.0,-1.5503730783156933
5.25,-1.5666326827107409
5.5,-1.553755805925251
5.75,-1.5248546078552647
6.0,-1.4883615140191646
6.25,-1.4441768525318883
6.5,-1.382086478948949
6.75,-1.2832076449781786
7.0,-1.1244130213310737
7.25,-0.884836247990625
7.5,-0.5529122445789548
7.75,-0.132138355618946
8.0,0.356055482383332
8.25,0.8733068840843198
8.5,1.369262654623095
8.75,1.7895788318688914
9.0,2.085338824804626
9.25,2.221881565176394
9.5,2.1851445377898857
9.75,1.984187819969322
10.0,1.6494294052210874
10.25,1.2270710130380795
10.5,0.7709950320605695
10.75,0.3338811655060634
11.0,-0.0406680704857032
11.25,-0.3235724273879564
11.5,-0.5025273509970912
11.75,-0.581068025037214
12.0,-0.5751213157006936
12.25,-0.5081529066763122
12.5,-0.4061245668864572
12.75,-0.2932767868443612
13.0,-0.1893400427967314
13.25,-0.1082952458673617
13.5,-0.0583943072253395
13.75,-0.0429197929381192
14.0,-0.0611468500368696
14.25,-0.1091380507641959
14.5,-0.1802648158863395
14.75,-0.2655974579421978
15.0,-0.354444402434619
15.25,-0.435300296399974
15.5,-0.4972935187198812
15.75,-0.531972273095406
16.0,-0.5350330572398806
16.25,-0.5074722010053376
16.5,-0.4556917891410699
16.75,-0.3903200111718106
17.0,-0.3238560868542997
17.25,-0.2676191388747779
17.5,-0.2287515654953433
17.75,-0.2081050347908749
18.0,-0.1996783943289316
18.25,-0.1919077685703206
18.5,-0.1706209612814118
18.75,-0.1229931151619772
19.0,-0.0415146774549227
19.25,0.0730929818890377
19.5,0.2108693884976905
19.75,0.3539177910620165
20.0,0.4798412540899165
20.25,0.5665748375157693
20.5,0.5974892668669639
20.75,0.565533271341165
21.0,0.4753868537891923
21.25,0.3430669881263269
21.5,0.193040778577002
21.75,0.0535005274661669
22.0,-0.0491139083291465
22.25,-0.0951064238592011
22.5,-0.0749485446478461
22.75,0.0095240605701903
23.0,0.1462349851117282
23.25,0.3158421078061963
23.5,0.4956882100901078
23.75,0.6636974288077714
24.0,0.801316882966595
24.25,0.8949655262393372
24.5,0.9359368898702218
24.75,0.9191670943179954
25.0,0.8415924801085943
25.25,0.7008969996024613
25.5,0.4952719476982113
25.75,0.224436012829218
26.0,-0.1082960934724657
26.25,-0.4935175319422052
26.5,-0.9136647919685174
26.75,-1.342237054872382
27.0,-1.744895021296091
27.25,-2.0825912101568838
27.5,-2.316368010518602
27.75,-2.4130066172241573
28.0,-2.3504383882387683
28.25,-2.1218122617557427
28.5,-1.737354856447624
28.75,-1.2236052774737896
29.0,-0.6201466184613017
29.25,0.0255380750541001
29.5,0.6641029161478562
29.75,1.2501597769780908
30.0,1.74689225964256
30.25,2.128798525053297
30.5,2.382343234758649
30.75,2.5047529151064296
31.0,2.501547454795292
31.25,2.3835880004612973
31.5,2.164408665527665
31.75,1.858406058025205
32.0,1.4801475750410098
32.25,1.0447112843028896
32.5,0.5686737315515851
32.75,0.0711858017984078
33.0,-0.4254429974990572
33.25,-0.8960968595395593
33.5,-1.3143358991358145
33.75,-1.654894652644783
34.0,-1.8967931328861156
34.25,-2.0264498832255304
34.5,-2.040110625444659
34.75,-1.944981404758012
35.0,-1.7586710052875918
35.25,-1.5068647857266944
35.5,-1.219510570613485
35.75,-0.9261257539442844
36.0,-0.6510642532176012
36.25,-0.4096582536200794
36.5,-0.2060448903117012
36.75,-0.033208099912014
37.0,0.1246471326801422
37.25,0.2877434617855706
37.5,0.475196776992747
37.75,0.6994014128980625
38.0,0.9615383483164328
38.25,1.2492613838740891
38.5,1.537228507391321
38.75,1.7905824197180504
39.0,1.970855059002852
39.25,2.043210595406003
39.5,1.9835806450565572
39.75,1.7841803079655718
40.0,1.456159201576031
40.25,1.0286987502720204
40.5,0.5446055877215012
40.75,0.0532114339198011
41.0,-0.3980018052871847
41.25,-0.7713238801737361
41.5,-1.0446303411682398
41.75,-1.213885025477977
42.0,-1.291859572581587
42.25,-1.3034467501142626
42.5,-1.2787089232512514
42.75,-1.2453008686706513
43.0,-1.2220161231788007
43.25,-1.2149007318679708
43.5,-1.216732686399952
43.75,-1.2098397023176315
44.0,-1.1714278349359322
44.25,-1.080017467079109
44.5,-0.921371974898232
44.75,-0.6925036402007834
45.0,-0.4028900428806038
45.25,-0.0727805695548849
45.5,0.2707848179018752
45.75,0.5990810639099287
46.0,0.8865635186030804
46.25,1.1143127611204977
46.5,1.2713820002703389
46.75,1.354041245113401
47.0,1.3635506132662685
47.25,1.3035111960927803
47.5,1.177911416643565
47.75,0.990687280563072
48.0,0.7470342058253954
48.25,0.456021451757972
48.5,0.1334812823294908
48.75,-0.1961353758640412
49.0,-0.5001161983151813
49.25,-0.7407046245169264
49.5,-0.8810140321145221
49.75,-0.8926056836084927
50.0,-0.7630169094071707
50.25,-0.5012506268963327
50.5,-0.1394833952938032
50.75,0.270003362705173
51.0,0.6625747771413982
51.25,0.9724133346418952
51.5,1.1448979651022808
51.75,1.1475138507842018
52.0,0.9767790869319496
52.25,0.6594613740775365
52.5,0.2476014563182577
52.75,-0.1917295953259057
53.0,-0.5897767704641063
53.25,-0.8896363651706163
53.5,-1.0569909452911943
53.75,-1.0856885791492792
54.0,-0.9970073184364392
54.25,-0.8329187830006537
54.5,-0.6450573916980132
54.75,-0.4820763570963236
55.0,-0.3783935438473894
55.25,-0.3469272404008
55.5,-0.3774008901214349
55.75,-0.4404154314267934
56.0,-0.4960919961066599
56.25,-0.5050184377952269
56.5,-0.4387452937974178
56.75,-0.2872755268938344
57.0,-0.0618100286760551
57.25,0.2077723833638904
57.5,0.4799187829358831
57.75,0.7110438125124564
58.0,0.8653925287611507
58.25,0.9227532434067228
58.5,0.8822750349076706
58.75,0.7616708391432253
59.0,0.5922405731046453
59.25,0.4111362717485328
59.5,0.2528744836359405
59.75,0.1421553366014165
60.0,0.089588135407192
60.25,0.0910952821633667
60.5,0.1308012301754018
60.75,0.1863650163827094
61.0,0.2351931845092541
61.25,0.259887591159368
61.5,0.251631707138141
61.75,0.2108791555064529
62.0,0.1454841815158772
62.25,0.0670912189907975
62.5,-0.0129957321123138
62.75,-0.0872052971459251
63.0,-0.1534093124006103
63.25,-0.2145696549624013
63.5,-0.2765763602524576
63.75,-0.345063311437534
64.0,-0.4222684548100882
64.25,-0.5049663895734656
64.5,-0.5841643976142753
64.75,-0.6467223916166623
65.0,-0.6784871478820039
65.25,-0.6680823473610294
65.5,-0.6102915820828454
65.75,-0.5080647984211001
66.0,-0.3725404060755065
66.25,-0.221003963343964
66.5,-0.0732553839388659
66.75,0.0527178118950208
67.0,0.1446751862672868
67.25,0.1986754469476152
67.5,0.219606212392381
67.75,0.2195638104935345
68.0,0.2144947848362408
68.25,0.2199399464530985
68.5,0.2469349123967653
68.75,0.299069769748547
69.0,0.3714141728895297
69.25,0.451552489124317
69.5,0.522464180083446
69.75,0.5665522133675897
70.0,0.5698677667527015
70.25,0.5255561741417282
70.5,0.4357523525166353
70.75,0.3115256044155478
71.0,0.1709190485706538
71.25,0.0355418536125293
71.5,-0.0735386583448586
71.75,-0.1397495307616529
72.0,-0.1540364672652375
72.25,-0.1164269256527716
72.5,-0.0359294752121488
72.75,0.0710929221494898
73.0,0.1836628199352181
73.25,0.2794700214639564
73.5,0.3381012035463245
73.75,0.3437224972842875
74.0,0.2869002201089418
74.25,0.1654525148314618
74.5,-0.0155925149404605
74.75,-0.2447363528347717
75.0,-0.5052096334028271
75.25,-0.7764229108260122
75.5,-1.0355330809596843
75.75,-1.2590719210240784
76.0,-1.4246400193315072
76.25,-1.5126785026638896
76.5,-1.5082876322160204
76.75,-1.4029794907182689
77.0,-1.196160252138176
77.25,-0.8960710860182436
77.5,-0.5199072694585513
77.75,-0.0929012800666128
78.0,0.3537031476508154
78.25,0.785664592700522
78.5,1.1694153901012274
78.75,1.4758873942020887
79.0,1.6838955673250615
79.25,1.7825031841158905
79.5,1.7719350216470653
79.75,1.6628509669321343
80.0,1.474097093948636
80.25,1.2293516187591809
80.5,0.9533117684220076
80.75,0.6681679582981792
81.0,0.3910524963908874
81.25,0.1329348831746918
81.5,-0.1008949314828015
81.75,-0.3089896168041749
82.0,-0.4911223835660652
82.25,-0.6456585585340486
82.5,-0.76772722091556
82.75,-0.8488254399719981
83.0,-0.8781408717486443
83.25,-0.8454313806333842
83.5,-0.7448552793129158
83.75,-0.5788122572579074
84.0,-0.3607239514045466
84.25,-0.11580345715417
84.5,0.1207724714224098
84.75,0.3083319969501764
85.0,0.4072522651791567
85.25,0.3864743831773271
85.5,0.2305430923535784
85.75,-0.0553281346116807
86.0,-0.4433993817093343
86.25,-0.8854395788216595
86.5,-1.318614996872228
86.75,-1.6744329955377557
87.0,-1.8893095482682665
87.25,-1.9149551255816728
87.5,-1.726741864277092
87.75,-1.328537683797112
88.0,-0.7531088167748337
88.25,-0.0579797134179712
88.5,0.6825567158187568
88.75,1.3879208981507412
89.0,1.9824616629391576
89.25,2.405576060761724
89.5,2.6191671590230534
89.75,2.611401684544774
90.0,2.39641233778027
90.25,2.0102916673391342
90.5,1.5043160571080083
90.75,0.9367206658439544
91.0,0.3644671365711561
91.25,-0.1636937673266419
91.5,-0.6119147708257604
91.75,-0.9592336221468104
92.0,-1.198895303233228
92.25,-1.3355262665561318
92.5,-1.3809992580854369
92.75,-1.3499772988134369
93.0,-1.256086382408827
93.25,-1.1094578641282873
93.5,-0.9160483222467142
93.75,-0.6787490297950751
94.0,-0.3999090065034334
94.25,-0.0845829223730812
94.5,0.2563654250508674
94.75,0.6041849155562972
95.0,0.9318976012547912
95.25,1.2060856337268304
95.5,1.3907600195976595
95.75,1.452804297200829
96.0,1.3680845354450166
96.25,1.1270642299600062
96.5,0.7387261603403413
96.75,0.2318126969718001
97.0,-0.3471680518305399
97.25,-0.9391307752899318
97.5,-1.4801198493194094
97.75,-1.910308655802737
98.0,-2.182727903907712
98.25,-2.2701225875117315
98.5,-2.168629425850315
98.75,-1.8975451621699
99.0,-1.4952111567616793
99.25,-1.0118153749462604
99.5,-0.5005403701030384
99.75,-0.0088221548819382
100.0,0.4285527029312135
100.25,0.7931960532015143
100.5,1.083097739375561
100.75,1.3090552224115204
101.0,1.4885541765403485
101.25,1.638650407780085
101.5,1.769594193806987
101.75,1.8807264562570936
102.0,1.959612524896181
102.25,1.984596989464276
102.5,1.9301469075734912
102.75,1.7736921537888382
103.0,1.50232369468139
103.25,1.1177504007892582
103.5,0.6383268090753439
103.75,0.0976441466401363
104.0,-0.4600403502211095
104.25,-0.986560657491394
104.5,-1.4373532851727695
104.75,-1.7781729550857068
105.0,-1.989698218937432
105.25,-2.069229017033293
105.5,-2.029341029243904
105.75,-1.8940090898880209
106.0,-1.693195874501304
106.25,-1.4571237777701298
106.5,-1.2113790908450104
106.75,-0.9736824282542824
107.0,-0.752697895090831
107.25,-0.54877177246675
107.5,-0.3561070939544143
107.75,-0.1656727996337029
108.0,0.0318607102209192
108.25,0.2437058462463006
108.5,0.4733507650023209
108.75,0.7197866388151334
109.0,0.9774041597946784
109.25,1.2363203124685826
109.5,1.4829398331545436
109.75,1.7006762780868765
110.0,1.8708907665638976
110.25,1.974186558466002
110.5,1.992180581137832
110.75,1.9097517723391264
111.0,1.717573894633135
111.25,1.414541011645292
111.5,1.0095612989984102
111.75,0.5221899366308433
112.0,-0.0182791955439712
112.25,-0.5753595078365465
112.5,-1.1092954578378476
112.75,-1.5817650395237135
113.0,-1.9605334047759304
113.25,-2.223182079785277
113.5,-2.3591967244938257
113.75,-2.370033338065665
114.0,-2.2672216949041792
114.25,-2.068999211819947
114.5,-1.7962895949689892
114.75,-1.46896606114141
115.0,-1.1032349038898737
115.25,-0.7106662693102775
115.5,-0.2989625073461016
115.75,0.1258992444689787
116.0,0.5568694269204207
116.25,0.9832604342939656
116.5,1.389238019459495
116.75,1.7539195443178963
117.0,2.053211300257607
117.25,2.263063416130416
117.5,2.3634453920429794
117.75,2.342141405756147
118.0,2.197481418156657
118.25,1.9393552607860705
118.5,1.58824299321842
118.75,1.1724397821825965
119.0,0.7240493553967156
119.25,0.2745737794270001
119.5,-0.149016642462827
119.75,-0.5269971100512093
120.0,-0.8479575208245381
120.25,-1.1081879560977224
120.5,-1.3097162084758698
120.75,-1.4576070022943477
121.0,-1.557247145136184
121.25,-1.6122787936613574
121.5,-1.623629737967693
121.75,-1.5897846538609717
122.0,-1.5081220921044656
122.25,-1.3768844988771278
122.5,-1.197209465003665
122.75,-0.9746551391511072
123.0,-0.7197917628899722
123.25,-0.4476646711987576
123.5,-0.1762028556679441
123.75,0.0761119472440232
124.0,0.2928405817944404
124.25,0.4619231508584444
124.5,0.5773023830621884
124.75,0.6395420211147225
125.0,0.6553648507739717
125.25,0.6362541415141985
125.5,0.5964363696128062
125.75,0.5506570762113011
126.0,0.5121603241084653
126.25,0.491192362012851
126.5,0.4941983221800347
126.75,0.5237065641212387
127.0,0.5787417579491508
127.25,0.6555117219913671
127.5,0.748096190493087
127.75,0.8489296747095416
128.0,0.9489960536665156
128.25,1.037803425730604
128.5,1.1033397236882876
128.75,1.132281008948325
129.0,1.1107073956775082
129.25,1.025470718603812
129.5,0.8661737123743579
129.75,0.6275059880977718
130.0,0.3114946717155468
130.25,-0.070875596074705
130.5,-0.499195679909472
130.75,-0.9446779194104812
131.0,-1.372794848881742
131.25,-1.747248129715235
131.5,-2.034678864596898
131.75,-2.209303191197479
132.0,-2.25659528817962
132.25,-2.17527465541111
132.5,-1.9771697901106728
132.75,-1.6849631750780043
133.0,-1.3282751788912677
133.25,-0.9389073939029108
133.5,-0.5462451585438143
133.75,-0.1737619802257249
134.0,0.162719257399905
134.25,0.4548063340661092
134.5,0.6996627546617192
134.75,0.8972085854267693
135.0,1.0473592849749516
135.25,1.1482311808109065
135.5,1.1959428719075835
135.75,1.1861488055228713
136.0,1.1168840713914423
136.25,0.9918326994541974
136.5,0.8228941022573028
136.75,0.6309972677805327
137.0,0.4445017824730846
137.25,0.2951434388979946
137.5,0.2121755403338056
137.75,0.2159393915961441
138.0,0.3124008969411795
138.25,0.4901112734155337
138.5,0.7205817496423879
138.75,0.9623018852731972
139.0,1.167759644294451
139.25,1.2920590831208092
139.5,1.3012816579238544
139.75,1.1787304950664232
140.0,0.9276536880552254
140.25,0.5698621939543228
140.5,0.140640651034397
140.75,-0.3187538217256358
141.0,-0.7691334811840119
141.25,-1.1799918973298806
141.5,-1.5331278161907815
141.75,-1.8225462370001315
142.0,-2.050923566616626
142.25,-2.223872102122522
142.5,-2.3438558941367065
142.75,-2.405719890823879
143.0,-2.395354706281621
143.25,-2.292136375772848
143.5,-2.074684302137466
143.75,-1.7284672300420991
144.0,-1.2531400045319507
144.25,-0.6674067918609541
144.5,-0.0097277648889228
144.75,0.6657990255326781
145.0,1.2977938149387906
145.25,1.8284349483216895
145.5,2.214264983932482
145.75,2.4343085428405686
146.0,2.4933991332962
146.25,2.419735734929891
146.5,2.2571131212741804
146.75,2.0536325252860905
147.0,1.8496451594771257
147.25,1.6679516991745675
147.5,1.5087853846399135
147.75,1.350950061118344
148.0,1.1589458754315152
148.25,0.8943784511675401
148.5,0.528804638439704
148.75,0.0547194664407329
149.0,-0.5082363405568977
149.25,-1.1136491153007777
149.5,-1.6954896302738898
149.75,-2.180579286582556
150.0,-2.503544541059503
150.25,-2.620769192260594
150.5,-2.520032694199843
150.75,-2.223512241839201
151.0,-1.7833874183309426
151.25,-1.2710366107125946
151.5,-0.7623251838452325
151.75,-0.3223878979491116
152.0,0.0066143905876522
152.25,0.2120427994492548
152.5,0.3103136637397596
152.75,0.3397909103111088
153.0,0.3489803652519771
153.25,0.3830334093524491
153.5,0.4718789906654156
153.75,0.622802664810478
154.0,0.8191207480390852
154.25,1.0250597091508864
154.5,1.1954310513532007
154.75,1.2875609590524362
155.0,1.2724569952947664
155.25,1.142468129695955
155.5,0.9136293615486972
155.75,0.6222291748935281
156.0,0.316555415868458
156.25,0.0459157531894922
156.5,-0.1503747202699155
156.75,-0.2514190699610367
157.0,-0.2586575253652119
157.25,-0.1944945493055202
157.5,-0.0961278652562674
157.75,-0.0061853403182772
158.0,0.0375375331870082
158.25,0.0108290886718595
158.5,-0.0916562007464882
158.75,-0.2556548124097331
159.0,-0.4510684721063671
159.25,-0.6392024747503597
159.5,-0.7816813488684905
159.75,-0.8489709494512439
160.0,-0.8266382203065371
160.25,-0.7180900726961925
160.5,-0.5433840166648366
160.75,-0.3345854153622428
161.0,-0.1288590837678261
161.25,0.0391187115412407
161.5,0.1438190818029469
161.75,0.1733050847403672
162.0,0.1307429852352606
162.25,0.0329222555450068
162.5,-0.0936697568705393
162.75,-0.2182478947354286
163.0,-0.3114556102969904
163.25,-0.3503434296364807
163.5,-0.3218006349404331
163.75,-0.2240316724798577
164.0,-0.0660762826365105
164.25,0.1342880095251475
164.5,0.3537058410066053
164.75,0.5668360088151756
165.0,0.7497956225211908
165.25,0.8830135629482542
165.5,0.9532257494628996
165.75,0.9545146028180858
166.0,0.8884297833389334
166.25,0.7633148322609852
166.5,0.5930085898016955
166.75,0.395104846445383
167.0,0.188954544013269
167.25,-0.0064062468535953
167.5,-0.1742184145565613
167.75,-0.3016688017513096
168.0,-0.3810948573257713
168.25,-0.4105859117841534
168.5,-0.3938997958181678
168.75,-0.3396947428474713
169.0,-0.26017111598781
169.25,-0.1693091633655927
169.5,-0.0809589259589715
169.75,-0.0070699135425603
170.0,0.0436690490997888
170.25,0.0665762631812884
170.5,0.0610135471397888
170.75,0.0297455377905221
171.0,-0.0222177513425688
171.25,-0.089034525293841
171.5,-0.1653887622965589
171.75,-0.2474897619520804
172.0,-0.3334854206040917
172.25,-0.4231869376761607
172.5,-0.5171579944636026
172.75,-0.6153751578795568
173.0,-0.71578494639838
173.25,-0.8131377251141156
173.5,-0.8984516790982021
173.75,-0.9593502329884438
174.0,-0.9813405969783272
174.25,-0.9498933657490788
174.5,-0.852987595806823
174.75,-0.6836481879497823
175.0,-0.4419590347575599
175.25,-0.1361036802730784
175.5,0.2178422831657404
175.75,0.5973989634655337
176.0,0.9762188674051938
176.25,1.3272194682726173
176.5,1.6257320146573917
176.75,1.8520896577462391
177.0,1.9932136777232647
177.25,2.042995972895868
177.5,2.0015621426050423
177.75,1.8737610608077164
178.0,1.6673957125122714
178.25,1.391739549881197
178.5,1.0567609856565447
178.75,0.6732342236177624
179.0,0.2536105514297732
179.25,-0.1867565835395798
179.5,-0.6286154406930949
179.75,-1.0486449378622005
180.0,-1.420538583413798
180.25,-1.7174584713257135
180.5,-1.9155851178342505
180.75,-1.9981251815173315
181.0,-1.958902015447816
181.25,-1.8046188918094943
181.5,-1.5550796742305684
181.75,-1.241047083716594
182.0,-0.8999313198993741
182.25,-0.5700130756656279
182.5,-0.2842891674916016
182.75,-0.0651845843935024
183.0,0.078748886805603
183.25,0.153415012316463
183.5,0.1768758818124328
183.75,0.1746432581515657
184.0,0.1735669408111257
184.25,0.1956520086909697
184.5,0.2531632950874161
184.75,0.3460934316758254
185.0,0.4625411456539904
185.25,0.5818888887298266
185.5,0.6800339187664663
185.75,0.7354607078153513
186.0,0.7347521312065408
186.25,0.6762654171628525
186.5,0.5711156820302437
186.75,0.4412184376961223
187.0,0.3148033102215438
187.25,0.2203749099597189
187.5,0.1804383742849331
187.75,0.2063540916248525
188.0,0.2954337093813965
188.25,0.4308997988616043
188.5,0.5847174046890273
188.75,0.7227039061383927
189.0,0.8108634943585261
189.25,0.8216677562821194
189.5,0.7390532906273864
189.75,0.5612092542144518
190.0,0.3007075838699382
190.25,-0.017922436209468
190.5,-0.362573396976348
190.75,-0.6989407218330332
191.0,-0.995817427228462
191.25,-1.229309214215323
191.5,-1.3852684613626496
191.75,-1.4596634484090802
192.0,-1.4570486980963693
192.25,-1.3876881816803328
192.5,-1.264127747020883
192.75,-1.0980717334043055
193.0,-0.8982869085460842
193.25,-0.66996979860599
193.5,-0.4156376001619334
193.75,-0.137221625365426
194.0,0.16126098511045
194.25,0.4712403013394733
194.5,0.7780926743639737
194.75,1.0611668363633715
195.0,1.2955593480945886
195.25,1.4554554988456472
195.5,1.518465706349741
195.75,1.470108111098251
196.0,1.3074822711644851
196.25,1.0412784594497249
196.5,0.695560157538807
196.75,0.3051887079202552
197.0,-0.0887598266562789
197.25,-0.444808533277027
197.5,-0.727070594393412
197.75,-0.9103040509972412
