Time (s),Wave elevation (m)
0.0,0.6428870633169472
0.25,0.6428870633169472
0.5,0.670834825339522
0.75,0.6874189948488018
1.0,0.6921822789609516
1.25,0.6852161070745612
1.5,0.6671379334881098
1.75,0.6390185697488212
2.0,0.6022694707200762
2.25,0.5585040946089381
2.5,0.5093898974015336
2.75,0.4565079713332597
3.0,0.401235793791747
3.25,0.3446652453715514
3.5,0.2875634107864067
3.75,0.2303782679348414
4.0,0.173285851086593
4.25,0.1162704986283412
4.5,0.0592259454458099
4.75,0.0020627365249456
5.0,-0.0551930258617232
5.25,-0.1123231982854395
5.5,-0.1688739102544971
5.75,-0.2241508568511307
6.0,-0.2772546354208439
6.25,-0.3271519353253319
6.5,-0.3727736279534627
6.75,-0.4131271157496619
7.0,-0.4474081380483798
7.25,-0.4750968745795778
7.5,-0.4960247011251733
7.75,-0.5104011837234734
8.0,-0.5187954933441469
8.25,-0.5220718642786926
8.5,-0.5212843836635074
8.75,-0.5175416286131175
9.0,-0.511855842823233
9.25,-0.5049939574090314
9.5,-0.4973484706189061
9.75,-0.4888448756340243
10.0,-0.4788990580491412
10.25,-0.4664331855830395
10.5,-0.4499525786407025
10.75,-0.4276795114433072
11.0,-0.3977335454449435
11.25,-0.358342526627423
11.5,-0.3080643897263547
11.75,-0.2459978603425817
12.0,-0.1719602863872697
12.25,-0.086613192214469
12.5,0.0084794707967464
12.75,0.1108694188813014
13.0,0.2173205117402255
13.25,0.3239783100297996
13.5,0.4266004770653833
13.75,0.5208299358464268
14.0,0.6024885062307607
14.25,0.6678666360502429
14.5,0.7139850045933025
14.75,0.738806189345731
15.0,0.7413789963658043
15.25,0.7219040157418627
15.5,0.6817158843095408
15.75,0.6231849422749817
16.0,0.5495477687779953
16.25,0.4646818401466688
16.5,0.3728437590881133
16.75,0.2783928068082134
17.0,0.1855218249012203
17.25,0.0980156989088911
17.5,0.0190542441601625
17.75,-0.0489284981863735
18.0,-0.1043221332785889
18.25,-0.1463543294263353
18.5,-0.1750465929462316
18.75,-0.1911207839644664
19.0,-0.1958690705970893
19.25,-0.191001842409391
19.5,-0.1784883705622109
19.75,-0.1604038133533643
20.0,-0.138793771321134
20.25,-0.1155643571232495
20.5,-0.0924020891842465
20.75,-0.0707242859077113
21.0,-0.051657433739139
21.25,-0.0360385513324219
21.5,-0.0244330835610667
21.75,-0.0171624112736994
22.0,-0.0143345999555575
22.25,-0.0158733576867224
22.5,-0.0215420631943875
22.75,-0.030961837876055
23.0,-0.0436246403291242
23.25,-0.0589039594592518
23.5,-0.0760666439943254
23.75,-0.0942896014416035
24.0,-0.1126845102031555
24.25,-0.130332409792871
24.5,-0.1463282599459903
24.75,-0.1598335563792034
25.0,-0.1701331623496058
25.25,-0.1766909608498286
25.5,-0.1791980088617774
25.75,-0.1776067613416151
26.0,-0.1721457044789262
26.25,-0.1633103560869885
26.5,-0.1518289033666349
26.75,-0.1386035052352075
27.0,-0.1246311696514162
27.25,-0.1109107762365303
27.5,-0.0983449119479252
27.75,-0.0876464358228475
28.0,-0.0792598896949243
28.25,-0.0733069423281115
28.5,-0.0695630404888466
28.75,-0.0674695156234028
29.0,-0.0661818441291359
29.25,-0.064650950004734
29.5,-0.0617307809411875
29.75,-0.056302290152764
30.0,-0.047401775501004
30.25,-0.0343405339961397
30.5,-0.0168031309435472
30.75,0.0050867347537114
31.0,0.0307409026315843
31.25,0.0591262766389774
31.5,0.0888291492761908
31.75,0.1181597833967287
32.0,0.1452885772131661
32.25,0.1684017886099882
32.5,0.1858625876087056
32.75,0.1963623834080682
33.0,0.1990480356581742
33.25,0.1936126557539711
33.5,0.1803410312368526
33.75,0.1601049348092914
34.0,0.1343082849435261
34.25,0.1047868339865966
34.5,0.0736712985690707
34.75,0.0432261923505994
35.0,0.0156787430590198
35.25,-0.0069470270819432
35.5,-0.0229767590949046
35.75,-0.0312006132414668
36.0,-0.0309476787044457
36.25,-0.0221151691810088
36.5,-0.0051520636836821
36.75,0.0189988312711309
37.0,0.0489926560386313
37.25,0.0831975266424344
37.5,0.1198205914161139
37.75,0.1570325780119434
38.0,0.1930793091215513
38.25,0.2263708593120705
38.5,0.2555421256946888
38.75,0.2794822274560558
39.0,0.2973339178218799
39.25,0.308467665261382
39.5,0.3124378572060489
39.75,0.3089303987055993
40.0,0.2977116322975624
40.25,0.278587937569538
40.5,0.2513836593219912
40.75,0.2159423678299818
41.0,0.1721531817694626
41.25,0.120000360141831
41.5,0.0596309967022986
41.75,-0.0085671856996058
42.0,-0.083887916431989
42.25,-0.1652391868371806
42.5,-0.2510973083509032
42.75,-0.3394912114991772
43.0,-0.428023399628455
43.25,-0.5139305965698677
43.5,-0.5941832967018833
43.75,-0.6656195276941195
44.0,-0.7251045673337566
44.25,-0.7697054801282758
44.5,-0.7968674507774449
44.75,-0.804578184743078
45.0,-0.7915071975818129
45.25,-0.7571085765274231
45.5,-0.7016786039557946
45.75,-0.6263632168128856
46.0,-0.5331143007365649
46.25,-0.4245979068279609
46.5,-0.3040612571807969
46.75,-0.175168533312434
47.0,-0.041817649162747
47.25,0.0920486800125473
47.5,0.2226243195020675
47.75,0.3464014786743397
48.0,0.4603029526847161
48.25,0.5617778543537292
48.5,0.6488572209752916
48.75,0.7201693869035772
49.0,0.7749183289218554
49.25,0.8128310255324583
49.5,0.8340819887756652
49.75,0.8392043703711782
50.0,0.82899734367244
50.25,0.8044388407854628
50.5,0.7666112864987591
50.75,0.7166458943921916
51.0,0.6556886035599389
51.25,0.5848880921439811
51.5,0.5054037643213423
51.75,0.4184294074705413
52.0,0.3252265513987026
52.25,0.2271605700726198
52.5,0.1257323198634499
52.75,0.0225986085406752
53.0,-0.0804240291055862
53.25,-0.1813760336209856
53.5,-0.2781936572914446
53.75,-0.3687692712437965
54.0,-0.4510301795362685
54.25,-0.5230308995490028
54.5,-0.5830521969312669
54.75,-0.6296990454132485
55.0,-0.6619892183428847
55.25,-0.6794244588142517
55.5,-0.6820371124608372
55.75,-0.6704066810106956
56.0,-0.6456428556515634
56.25,-0.609334065491186
56.5,-0.5634632448763777
56.75,-0.5102951819503015
57.0,-0.4522422521106184
57.25,-0.3917173654882537
57.5,-0.3309843919373313
57.75,-0.2720170316677091
58.0,-0.2163769842198697
58.25,-0.1651213000827252
58.5,-0.1187470082375202
58.75,-0.077178594594912
59.0,-0.0398008180733983
59.25,-0.0055359046144385
59.5,0.0270393919754034
59.75,0.0595447519836175
60.0,0.0936260879621155
60.25,0.1307771983995284
60.5,0.1721675628248867
60.75,0.218490733755839
61.0,0.2698467767474237
61.25,0.3256700493619026
61.5,0.3847104095528137
61.75,0.4450719159328033
62.0,0.5043085226207423
62.25,0.5595715389952622
62.5,0.6077991142916936
62.75,0.6459341155539241
63.0,0.6711538589172868
63.25,0.6810935246673319
63.5,0.6740449336507567
63.75,0.6491137622909267
64.0,0.6063211665150933
64.25,0.5466399758014907
64.5,0.4719607868794881
64.75,0.3849890109377349
65.0,0.2890797207240207
65.25,0.1880224930886795
65.5,0.0857928597399969
65.75,-0.0137099548218497
66.0,-0.1069179218276508
66.25,-0.1908210520886596
66.5,-0.263147761814745
66.75,-0.3224842185076444
67.0,-0.3683233439602058
67.25,-0.4010402411590206
67.5,-0.4217972259632009
67.75,-0.4323877967165733
68.0,-0.4350341952728269
68.25,-0.4321572022823803
68.5,-0.426139089661444
68.75,-0.419101004818998
69.0,-0.412714448113368
69.25,-0.4080630794019861
69.5,-0.4055661794200427
69.75,-0.4049691701712238
70.0,-0.4054002381605011
70.25,-0.4054859211362109
70.5,-0.4035131112222908
70.75,-0.3976208152986717
71.0,-0.3860025871821705
71.25,-0.3671000253390609
71.5,-0.3397691415007174
71.75,-0.3034045809307849
72.0,-0.2580112670818643
72.25,-0.2042185623742058
72.5,-0.1432379016913582
72.75,-0.0767704540300697
73.0,-0.0068761222061465
73.25,0.0641813832116581
73.5,0.1340968995302681
73.75,0.200677163462536
74.0,0.261970568088545
74.25,0.3163621230146032
74.5,0.3626269451334394
74.75,0.3999407507167518
75.0,0.4278509826211581
75.25,0.4462167944217115
75.5,0.4551295969217137
75.75,0.4548278472675878
76.0,0.4456199937022002
76.25,0.4278279460329087
76.5,0.4017602949759625
76.75,0.3677201135659735
77.0,0.3260470529858515
77.25,0.2771882016801367
77.5,0.2217874476454122
77.75,0.1607794639129122
78.0,0.0954724100122007
78.25,0.027603322574689
78.5,-0.0406479377628105
78.75,-0.1066965294159728
79.0,-0.1676472717219138
79.25,-0.2204447378000401
79.5,-0.262070743561574
79.75,-0.2897748578797203
80.0,-0.3013183528501043
80.25,-0.2952085586165098
80.5,-0.2708993601591113
80.75,-0.2289348307520177
81.0,-0.1710167415818625
81.25,-0.0999826592756263
81.5,-0.0196890381545087
81.75,0.0651975726463963
82.0,0.1494891929645783
82.25,0.2278247449838342
82.5,0.2950512227736441
82.75,0.3466065074725591
83.0,0.3788710703825089
83.25,0.3894572807902984
83.5,0.3774095082435912
83.75,0.3432953387806218
84.0,0.2891773990588487
84.25,0.2184656739443318
84.5,0.1356608472089384
84.75,0.0460090828905793
85.0,-0.0449031568575739
85.25,-0.1315799962130374
85.5,-0.2090358904567201
85.75,-0.2731681741108438
86.0,-0.3210504658892568
86.25,-0.3511220587030571
86.5,-0.363257813129504
86.75,-0.3587139027040654
87.0,-0.3399560112171094
87.25,-0.3103871943469159
87.5,-0.2740015886452325
87.75,-0.2349966357886973
88.0,-0.1973798845814178
88.25,-0.1646064313636924
88.5,-0.1392796828307169
88.75,-0.1229417198740398
89.0,-0.1159707423797398
89.25,-0.1175927442687145
89.5,-0.1260037071900123
89.75,-0.1385882535814526
90.0,-0.1522118481829057
90.25,-0.1635571085105752
90.5,-0.1694711711972144
90.75,-0.1672906641551946
91.0,-0.1551136397432653
91.25,-0.1319935064830571
91.5,-0.0980379570478076
91.75,-0.0544053175088423
92.0,-0.0032006980022225
92.25,0.0527161651210666
92.5,0.1099913318578685
92.75,0.1650792644814401
93.0,0.2145581512993596
93.25,0.2554280175828129
93.5,0.2853641205936182
93.75,0.3029031363619243
94.0,0.3075466839227186
94.25,0.2997750568120022
94.5,0.2809727929940376
94.75,0.2532760438446067
95.0,0.2193587978039552
95.25,0.1821802172761636
95.5,0.144718207570265
95.75,0.1097146497652236
96.0,0.0794555509074234
96.25,0.0556049974472575
96.5,0.0391057531194901
96.75,0.0301522838208828
97.0,0.0282346624309789
97.25,0.0322449508960703
97.5,0.0406319463403894
97.75,0.051586143653475
98.0,0.0632347503702928
98.25,0.0738267135584539
98.5,0.0818898815978983
98.75,0.086346318595833
99.0,0.0865769403850815
99.25,0.0824324603256624
99.5,0.0741934841340567
99.75,0.0624878592624715
100.0,0.0481775332279278
100.25,0.0322298109256676
100.5,0.0155888016683472
100.75,-0.000938017221929
101.0,-0.0167656625396044
101.25,-0.0315812237394652
101.5,-0.0453530237229129
101.75,-0.0583001020190293
102.0,-0.0708273900972791
102.25,-0.0834358315504711
102.5,-0.0966194290928876
102.75,-0.1107625042346388
103.0,-0.1260502239564068
103.25,-0.1424037407053493
103.5,-0.1594483253423842
103.75,-0.1765189968784115
104.0,-0.1927038089766088
104.25,-0.2069206246150631
104.5,-0.2180193701369319
104.75,-0.224898820822457
105.0,-0.2266252414973843
105.25,-0.222539862739157
105.5,-0.2123432408112427
105.75,-0.1961469021107315
106.0,-0.1744860507734986
106.25,-0.1482911564563315
106.5,-0.1188205087207917
106.75,-0.0875598765739438
107.0,-0.0560988264672521
107.25,-0.025995680642383
107.5,0.0013557024174028
107.75,0.0248442856690867
108.0,0.0437337677830035
108.25,0.0577190875258
108.5,0.066942049208233
108.75,0.0719646204036148
109.0,0.0737025895358154
109.25,0.0733261115956859
109.5,0.0721368395494106
109.75,0.0714335344063388
110.0,0.0723790675233947
110.25,0.0758814929753588
110.5,0.0825004187913953
110.75,0.0923874040246929
111.0,0.1052658131799838
111.25,0.1204518004757511
111.5,0.1369142405063035
111.75,0.1533678359336359
112.0,0.1683906483253812
112.25,0.1805551803322337
112.5,0.188561061580063
112.75,0.1913574289399432
113.0,0.1882442093932038
113.25,0.1789435759647682
113.5,0.1636356363191176
113.75,0.1429556522850723
114.0,0.1179534685258312
114.25,0.090019040824347
114.5,0.0607807183257055
114.75,0.0319850221383811
115.0,0.0053679194978391
115.25,-0.0174720542526507
115.5,-0.0351890112918553
115.75,-0.0467847855690386
116.0,-0.0516773604446323
116.25,-0.0497385484306731
116.5,-0.0412994216155114
116.75,-0.0271245500458218
117.0,-0.0083584049945959
117.25,0.0135508548761009
117.5,0.03694370099517
117.75,0.0600504789874305
118.0,0.0810943742735511
118.25,0.0983894463809965
118.5,0.1104281080143957
118.75,0.1159537909304551
119.0,0.1140160852948882
119.25,0.1040072016474349
119.5,0.0856800377479169
119.75,0.0591493165550324
120.0,0.0248781137158089
120.25,-0.0163474267395262
120.5,-0.0634522776559888
120.75,-0.1151129165401847
121.0,-0.1698016783676627
121.25,-0.225833447272048
121.5,-0.2814137149480812
121.75,-0.3346876251935681
122.0,-0.3837900629209739
122.25,-0.4268970663786798
122.5,-0.4622788088387237
122.75,-0.4883541110546655
123.0,-0.5037459432472515
123.25,-0.5073367205490114
123.5,-0.4983214772564856
123.75,-0.4762563249522662
124.0,-0.4410990619667159
124.25,-0.3932385019086078
124.5,-0.3335091021532756
124.75,-0.2631878450860513
125.0,-0.1839710657935883
125.25,-0.0979300013294806
125.5,-0.0074451921636473
125.75,0.084878604174938
126.0,0.1763137498528031
126.25,0.2641225920698659
126.5,0.3456758871629162
126.75,0.4185699343357774
127.0,0.4807351672072323
127.25,0.5305290973870405
127.5,0.5668072262052936
127.75,0.5889668156674988
128.0,0.5969601638458459
128.25,0.5912761421543677
128.5,0.5728910622196386
128.75,0.5431922615937653
129.0,0.5038799323436153
129.25,0.4568544726071494
129.5,0.4040978502875072
129.75,0.347558002139535
130.0,0.2890450765092681
130.25,0.230147353268819
130.5,0.1721729970362934
130.75,0.1161215424087957
131.0,0.0626863533957787
131.25,0.0122864684717834
131.5,-0.0348765116038699
131.75,-0.078743259096933
132.0,-0.1193118999326988
132.25,-0.1565532576893959
132.5,-0.1903360822694061
132.75,-0.2203714398822406
133.0,-0.246183778238312
133.25,-0.2671137164643431
133.5,-0.2823545392438524
133.75,-0.2910209601827772
134.0,-0.2922452653703821
134.25,-0.2852927771109383
134.5,-0.269686000979604
134.75,-0.2453251072235561
135.0,-0.2125917533373623
135.25,-0.1724237928607208
135.5,-0.1263501475919985
135.75,-0.0764779498004116
136.0,-0.025427787275084
136.25,0.0237827827309996
136.5,0.0679027009971529
136.75,0.1036486651650157
137.0,0.1279310890329259
137.25,0.1380886745021436
137.5,0.1321137135723211
137.75,0.1088498492396818
138.0,0.0681451309954487
138.25,0.0109457661195643
138.5,-0.0606801704449437
138.75,-0.1435949243277955
139.0,-0.2337194754913991
139.25,-0.3262327599665949
139.5,-0.4158307812357623
139.75,-0.4970298841310832
140.0,-0.5644947448114944
140.25,-0.6133693137096713
140.5,-0.6395882360598648
140.75,-0.6401472396706159
141.0,-0.6133135597550383
141.25,-0.5587614736948963
141.5,-0.4776231387977225
141.75,-0.3724507698793373
142.0,-0.2470923126823907
142.25,-0.106488698171739
142.5,0.0435939431110761
142.75,0.1968794563860958
143.0,0.3469236308037983
143.25,0.4874609336995572
143.5,0.6127341416058105
143.75,0.7177866901230823
144.0,0.7987006212043423
144.25,0.8527671605858319
144.5,0.8785818691605752
144.75,0.8760615953879177
145.0,0.8463857148430379
145.25,0.7918690006915822
145.5,0.7157775958085463
145.75,0.62210269442965
146.0,0.5153085158504963
146.25,0.4000718862764585
146.5,0.2810302533884694
146.75,0.1625533446463697
147.0,0.0485511217525143
147.25,-0.0576725871176319
147.5,-0.1535151107048842
147.75,-0.2371168245207506
148.0,-0.3073518831776244
148.25,-0.3637731745275349
148.5,-0.4065197068562516
148.75,-0.4361967419673421
149.0,-0.4537402562850937
149.25,-0.4602777062083401
149.5,-0.4569966074061877
149.75,-0.4450311778453987
150.0,-0.425375354031375
150.25,-0.3988280191483042
150.5,-0.3659734576616419
150.75,-0.327197067663024
151.0,-0.282733420546625
151.25,-0.2327410544894419
151.5,-0.1773961067359555
151.75,-0.1169951892464153
152.0,-0.0520569193634459
152.25,0.0165886828997362
152.5,0.0877330893994449
152.75,0.1597531648597843
153.0,0.2306126032328483
153.25,0.2979046279190983
153.5,0.3589364474531251
153.75,0.4108525057140519
154.0,0.4507901485989939
154.25,0.4760582126350969
154.5,0.4843264855864809
154.75,0.4738122296037054
155.0,0.4434491824494608
155.25,0.393024785101361
155.5,0.3232728672271392
155.75,0.2359116077813677
156.0,0.1336201349941019
156.25,0.0199514086042959
156.5,-0.1008162675628607
156.75,-0.2238819818108995
157.0,-0.3441676244594722
157.25,-0.4565906416931722
157.5,-0.5563460915239182
157.75,-0.6391785625359628
158.0,-0.7016246070312387
158.25,-0.7412079743922113
158.5,-0.7565730329398981
158.75,-0.7475461349104171
159.0,-0.7151199879266414
159.25,-0.661361932531274
159.5,-0.5892529137723241
159.75,-0.5024693802814651
160.0,-0.4051248752274846
160.25,-0.3014912952571484
160.5,-0.195721386690705
160.75,-0.0915938588392911
161.0,0.0076994878051797
161.25,0.0997088472359359
161.5,0.1828129100532587
161.75,0.2562318842929701
162.0,0.3199684525043968
162.25,0.3746842600330963
162.5,0.4215250221290424
162.75,0.4619116554907759
163.0,0.4973175958999896
163.25,0.5290534098094981
163.5,0.5580788596817522
163.75,0.5848598284973524
164.0,0.6092832013187028
164.25,0.6306373366132089
164.5,0.6476596386695807
164.75,0.6586465257029299
165.0,0.6616153440055123
165.25,0.6545030286168351
165.5,0.63538298263186
165.75,0.602680033338582
166.0,0.5553635558140815
166.25,0.4931008931572904
166.5,0.4163568400186347
166.75,0.3264298395682137
167.0,0.2254212097598631
167.25,0.1161396332742775
167.5,0.001948772708336
167.75,-0.1134292987960637
168.0,-0.2261385541662157
168.25,-0.3324229735515254
168.5,-0.4288512152918679
168.75,-0.512514455341178
169.0,-0.5811826096179359
169.25,-0.6334081138565173
169.5,-0.6685711987551548
169.75,-0.6868657020029997
170.0,-0.6892294255753673
170.25,-0.6772274304976187
170.5,-0.6529000895808085
170.75,-0.6185899257357139
171.0,-0.5767621120659973
171.25,-0.5298329990574685
171.5,-0.4800192931692206
171.75,-0.4292177807258499
172.0,-0.3789220938529291
172.25,-0.3301793192575838
172.5,-0.2835856295724232
172.75,-0.2393169116190931
173.0,-0.1971878511567672
173.25,-0.1567312935930243
173.5,-0.1172890143044943
173.75,-0.0781052736797713
174.0,-0.0384155769916368
174.25,0.0024752929879767
174.5,0.0451299023645951
174.75,0.0899312985346999
175.0,0.13705258069997
175.25,0.1864413062072102
175.5,0.2378161219771598
175.75,0.2906725933867459
176.0,0.3442953599989961
176.25,0.3977743839739252
176.5,0.4500240170525711
176.75,0.499804701328943
177.0,0.545748131613357
177.25,0.5863874532479464
177.5,0.6201944005388191
177.75,0.645625110748326
178.0,0.6611756635399935
178.25,0.6654472587727576
178.5,0.6572194888091012
178.75,0.6355285709105342
179.0,0.5997458978010294
179.25,0.5496510612643917
179.5,0.4854928021556305
179.75,0.4080312884375158
180.0,0.3185557988970686
180.25,0.2188732896123226
180.5,0.1112653528022469
180.75,-0.0015864259096839
181.0,-0.1167039779076524
181.25,-0.2309397080427538
181.5,-0.3411191100032229
181.75,-0.4441894717363971
182.0,-0.5373641157819725
182.25,-0.6182515655703266
182.5,-0.6849599526620401
182.75,-0.7361688274325016
183.0,-0.7711631562930042
183.25,-0.7898274485629665
183.5,-0.7926013613073164
183.75,-0.7804014551923224
184.0,-0.7545166947078912
184.25,-0.7164875129587462
184.5,-0.667979570742013
184.75,-0.6106635966932932
185.0,-0.5461118682977416
185.25,-0.4757200586075644
185.5,-0.4006605074595401
185.75,-0.32186973925949
186.0,-0.2400695600646814
186.25,-0.1558176686366928
186.5,-0.0695807445435653
186.75,0.0181792759012356
187.0,0.106916336898852
187.25,0.1959196585398567
187.5,0.2842513898470536
187.75,0.3707106710422633
188.0,0.4538295913499514
188.25,0.5319033113368797
188.5,0.6030531675273735
188.75,0.6653182309880926
189.0,0.7167678772391567
189.25,0.7556257239592774
189.5,0.7803940152395956
189.75,0.7899672945428565
190.0,0.7837250287914843
190.25,0.7615946365376322
190.5,0.7240789549545786
190.75,0.6722453008850258
191.0,0.6076766400530178
191.25,0.5323886576040425
191.5,0.4487194174176722
191.75,0.3592005445122083
192.0,0.2664202683746239
192.25,0.1728891131866041
192.5,0.0809184943010808
192.75,-0.0074789482872331
193.0,-0.0906606238300312
193.25,-0.1673929168496267
193.5,-0.2368567719331051
193.75,-0.2986218868900332
194.0,-0.3525941182109847
194.25,-0.3989428345083814
194.5,-0.4380163853773044
194.75,-0.4702544788158553
195.0,-0.4961060526620383
195.25,-0.5159602355132189
195.5,-0.530096342045327
195.75,-0.5386567148694542
196.0,-0.541643826113978
196.25,-0.5389406189870007
196.5,-0.5303508287744563
