Time (s),Wave elevation (m)
0.0,3.6430266921283088
0.25,3.6430266921283088
0.5,3.790104235136753
0.75,3.883789713587894
1.0,3.9218040761053055
1.25,3.9040277882061742
1.5,3.832460829101253
1.75,3.711012321142042
2.0,3.545144990882378
2.25,3.3414126225057297
2.5,3.106937591555003
2.75,2.8488796995540238
3.0,2.5739465827250325
3.25,2.2879901482905844
3.5,1.995723472575348
3.75,1.700579442345475
4.0,1.4047174857511917
4.25,1.109169524436163
4.5,0.8141022912000737
4.75,0.519161764872899
5.0,0.2238577717299868
5.25,-0.0720564872439092
5.5,-0.3682538202250478
5.75,-0.6635892619058822
6.0,-0.9559712472503306
6.25,-1.242363186506927
6.5,-1.5189166165435457
6.75,-1.7812226838149086
7.0,-2.024655601019754
7.25,-2.244771242630132
7.5,-2.437717278384929
7.75,-2.600608903091702
8.0,-2.731826590371237
8.25,-2.831199203053779
8.5,-2.9000466151286117
8.75,-2.941069733167579
9.0,-2.958091148753234
9.25,-2.955665135268963
9.5,-2.938589816460639
9.75,-2.911365683155638
10.0,-2.877652062613828
10.25,-2.839775848780925
10.5,-2.798344408893004
10.75,-2.7520071902790493
11.0,-2.697398724616028
11.25,-2.629280447848592
11.5,-2.540881337851621
11.75,-2.4244193500043147
12.0,-2.27176861329139
12.25,-2.0752228803462285
12.5,-1.8282951422870248
12.75,-1.5264876342964633
13.0,-1.1679662619130708
13.25,-0.7540788872761405
13.5,-0.2896675576621589
13.75,0.2168601931054342
14.0,0.7537176012369999
14.25,1.3061791853855294
14.5,1.8572522323256035
14.75,2.3885376012802304
15.0,2.881222949986116
15.25,3.317140629884828
15.5,3.679816914412086
15.75,3.955439354486979
16.0,4.133674861733804
16.25,4.2082820947829145
16.5,4.177476937139451
16.75,4.04402803885873
17.0,3.8150790557098486
17.25,3.5017137707104204
17.5,3.118298177059002
17.75,2.681648462896094
18.0,2.210084575011812
18.25,1.7224349278420272
18.5,1.2370585638497569
18.75,0.7709467940872528
19.0,0.3389575957070033
19.25,-0.046776290897245
19.5,-0.3772393842685206
19.75,-0.6467153038873075
20.0,-0.8527637919843862
20.25,-0.9960124539959746
20.5,-1.0797943857913688
20.75,-1.1096711418457923
21.0,-1.0928849803826233
21.25,-1.0377848963702871
21.5,-0.953267868281322
21.75,-0.8482705569473803
22.0,-0.7313382052195238
22.25,-0.6102876527245426
22.5,-0.4919712171509123
22.75,-0.3821386785968585
23.0,-0.2853865819354002
23.25,-0.2051781835847491
23.5,-0.1439139959152723
23.75,-0.1030321255390423
24.0,-0.0831192844719027
24.25,-0.0840170538370535
24.5,-0.104913086578838
24.75,-0.1444127193629428
25.0,-0.20059216005106
25.25,-0.271039309540398
25.5,-0.3528917730541643
25.75,-0.4428833089202255
26.0,-0.5374096705192032
26.25,-0.6326225784084653
26.5,-0.7245567044468876
26.75,-0.8092895441683079
27.0,-0.8831285249636535
27.25,-0.9428143444294624
27.5,-0.9857250481197826
27.75,-1.010062348738249
28.0,-1.0150006183043294
28.25,-1.0007801059250003
28.5,-0.9687292656633358
28.75,-0.9212063974821746
29.0,-0.8614576595940893
29.25,-0.7933962686843085
29.5,-0.7213156079615201
29.75,-0.6495562057536546
30.0,-0.5821523557680534
30.25,-0.52248786244776
30.5,-0.4729915311642014
30.75,-0.4349013385141093
31.0,-0.4081217343369482
31.25,-0.3911915380076894
31.5,-0.3813709424289901
31.75,-0.3748459814627272
32.0,-0.3670383418470882
32.25,-0.352998559617342
32.5,-0.3278523554058024
32.75,-0.2872639384608695
33.0,-0.227877157808119
33.25,-0.1476957580158805
33.5,-0.0463677709303001
33.75,0.0746539967317962
34.0,0.2120938655668445
34.25,0.3609846547732489
34.5,0.5149432973217068
34.75,0.666573320863509
35.0,0.8079658682613158
35.25,0.9312621512772804
35.5,1.0292344035000724
35.75,1.095840060456054
36.0,1.1267052840137732
36.25,1.1194989810870457
36.5,1.0741667437034126
36.75,0.9930049769656462
37.0,0.8805679783781855
37.25,0.7434138373982178
37.5,0.5897076366210395
37.75,0.4287114986903376
38.0,0.2701996154814428
38.25,0.1238418147341841
38.5,-0.0013989621583215
38.75,-0.0978117922733141
39.0,-0.1593874347022387
39.25,-0.1821428453650298
39.5,-0.1643014985226013
39.75,-0.1063223989685878
40.0,-0.0107828476076956
40.25,0.117868596263004
40.5,0.2736628912867877
40.75,0.4495318921938624
41.0,0.6377632211858095
41.25,0.8304509190108954
41.5,1.0199068861196066
41.75,1.1990038426290173
42.0,1.361428651724163
42.25,1.501834562821858
42.5,1.6158913067920526
42.75,1.7002420404257343
43.0,1.7523849608547797
43.25,1.7705041912687975
43.5,1.7532786755117378
43.75,1.6996989617242884
44.0,1.6089198360960368
44.25,1.4801720034261527
44.5,1.3127488799702365
44.75,1.106075760487714
45.0,0.8598589912214657
45.25,0.5743032427908525
45.5,0.2503764402954822
45.75,-0.1099048115105181
46.0,-0.5032007216145058
46.25,-0.9246174943129202
46.5,-1.3675512616955234
46.75,-1.8236331669531307
47.0,-2.2827947499518286
47.25,-2.733463552567701
47.5,-3.162888418147798
47.75,-3.5575831911093974
48.0,-3.9038673434990394
48.25,-4.188473331097582
48.5,-4.399183955642732
48.75,-4.525459240197876
49.0,-4.559011639056623
49.25,-4.494290872991407
49.5,-4.328845116742293
49.75,-4.063533239245603
50.0,-3.7025726770996097
50.25,-3.2534185301485423
50.5,-2.72648074627418
50.75,-2.134696943098302
51.0,-1.4929876919119431
51.25,-0.8176282844535899
51.5,-0.1255756150435557
51.75,0.5662094478128588
52.0,1.241405010038125
52.25,1.8849011650822256
52.5,2.483274117493385
52.75,3.0251405761319083
53.0,3.5013808230082883
53.25,3.9052285020648903
53.5,4.232234456826637
53.75,4.480120187333621
54.0,4.64854311390496
54.25,4.738800396527462
54.5,4.753500310047208
54.75,4.696230053064002
55.0,4.571246495822465
55.25,4.383212042294402
55.5,4.136991926241292
55.75,3.837522412262702
56.0,3.489752116876148
56.25,3.098651594568567
56.5,2.6692800037650857
56.75,2.2068925528901
57.0,1.7170688907943097
57.25,1.2058408786366317
57.5,0.6797983466212764
57.75,0.146153438439029
58.0,-0.3872522162518044
58.25,-0.9120082958408912
58.5,-1.4192694482538295
58.75,-1.8999603556959832
59.0,-2.34504438249943
59.25,-2.7458421108145075
59.5,-3.0943811057016237
59.75,-3.3837545633887305
60.0,-3.60846435817966
60.25,-3.7647235840236575
60.5,-3.8506950418539474
60.75,-3.866645193786084
61.0,-3.8149977195964175
61.25,-3.700276698746903
61.5,-3.528936247265088
61.75,-3.309080743391465
62.0,-3.050087118690213
62.25,-2.762147597121263
62.5,-2.4557572706856314
62.75,-2.141175583804209
63.0,-1.827893802790416
63.25,-1.524141604830875
63.5,-1.2364648761340609
63.75,-0.9694036299490107
64.0,-0.7252937446724315
64.25,-0.5042092184566074
64.5,-0.3040532065811624
64.75,-0.1207967317964172
65.0,0.0511457940324889
65.25,0.2184245981987208
65.5,0.3881750855717217
65.75,0.5673869200544478
66.0,0.7622626692302339
66.25,0.9776094850636078
66.5,1.2163069112991447
66.75,1.4788905705024071
67.0,1.7632852702175636
67.25,2.0647122656606665
67.5,2.375784512756633
67.75,2.6867914039542358
68.0,2.98616150269377
68.25,3.261079071004464
68.5,3.498218635569212
68.75,3.6845523376653584
69.0,3.808178130593494
69.25,3.85911362190165
69.5,3.830000878871288
69.75,3.7166719316941776
70.0,3.5185328416239487
70.25,3.2387355886300084
70.5,2.8841209507102707
70.75,2.464931054288681
71.0,1.9943062784803207
71.25,1.487596527866129
71.5,0.9615303950950916
71.75,0.4332963666240409
72.0,-0.080402877720737
72.25,-0.5642594550065616
72.5,-1.0051709884882785
72.75,-1.3928980529276522
73.0,-1.7205240815814866
73.25,-1.9846875407971736
73.5,-2.185572604779035
73.75,-2.326662110152668
74.0,-2.4142739047279846
74.25,-2.45691749242669
74.5,-2.4645208867444266
74.75,-2.447586794145096
75.0,-2.416341923779571
75.25,-2.3799429831472043
75.5,-2.345797783052836
75.75,-2.319050245075732
76.0,-2.3022647503952016
76.25,-2.2953292637921536
76.5,-2.2955793022509354
76.75,-2.2981274973014187
77.0,-2.2963676236971
77.25,-2.2826088131382
77.5,-2.2487862910891563
77.75,-2.187190100435193
78.0,-2.091153260832601
78.25,-1.9556455996313789
78.5,-1.7777286157804282
78.75,-1.5568393725632816
79.0,-1.2948864342260376
79.25,-0.9961569445162912
79.5,-0.6670496891778843
79.75,-0.3156630281202059
80.0,0.0487222741073575
80.25,0.4162179821778772
80.5,0.7769108600350808
80.75,1.1214041583631702
81.0,1.4412756749307742
81.25,1.7294197507418303
81.5,1.9802531351530377
81.75,2.1897787649192835
82.0,2.355515795326391
82.25,2.4763173220831023
82.5,2.552107879835397
82.75,2.5835799678721023
83.0,2.5718918359654213
83.25,2.5184072613013253
83.5,2.42451218939067
83.75,2.291533449399765
84.0,2.12077221630413
84.25,1.913650702613744
84.5,1.6719561295737302
84.75,1.3981528148853717
85.0,1.0957226018548905
85.25,0.7694870095376638
85.5,0.4258622412883034
85.75,0.0730009698135878
86.0,-0.2792174272118719
86.25,-0.6193742991281714
86.5,-0.9348872449518392
86.75,-1.212566296902515
87.0,-1.4393249074192278
87.25,-1.6030025796268308
87.5,-1.6932414680739352
87.75,-1.7023490304558733
88.0,-1.626073982981982
88.25,-1.4642241127818298
88.5,-1.2210621231691914
88.75,-0.9054292732013084
89.0,-0.5305652262086462
89.25,-0.1136148721828484
89.5,0.3251628043751083
89.75,0.7634444464736989
90.0,1.1780890286919994
90.25,1.5465016715124684
90.5,1.848022063847916
90.75,2.065239226663084
91.0,2.185136144843648
91.25,2.1999772330131395
91.5,2.107868139029416
91.75,1.912939883942192
92.0,1.6251361324803568
92.25,1.259611440699836
92.5,0.8357773707914415
92.75,0.3760600911309619
93.0,-0.0955446635072588
93.25,-0.5550174371993842
93.5,-0.9798515491481444
93.75,-1.350470148036213
94.0,-1.6514222498420228
94.25,-1.872272555848289
94.5,-2.008122832856661
94.75,-2.059730459291845
95.0,-2.033220224759293
95.25,-1.9394162211974617
95.5,-1.7928492584298443
95.75,-1.6105194230191118
96.0,-1.4105112775877813
96.25,-1.2105693768510408
96.5,-1.0267434858026647
96.75,-0.8722060363172393
97.0,-0.7563295499229089
97.25,-0.6840902219798853
97.5,-0.6558373741363425
97.75,-0.6674391918989583
98.0,-0.7107854347913302
98.25,-0.77460001444904
98.5,-0.8454926781253591
98.75,-0.9091613513463448
99.0,-0.9516463199669292
99.25,-0.9605350971636938
99.5,-0.926022593187177
99.75,-0.8417444952872228
100.0,-0.705321381110079
100.25,-0.5185753443713066
100.5,-0.2874077696685134
100.75,-0.0213541387887887
101.0,0.2671428247285691
101.25,0.5636787831842412
101.5,0.8529732230401532
101.75,1.1200063687253328
102.0,1.3511171764470016
102.25,1.5349772699692308
102.5,1.6633676596581235
102.75,1.7317026530425796
103.0,1.739266952057974
103.25,1.689155677297744
103.5,1.587930968251623
103.75,1.445030921787295
104.0,1.2719851883247597
104.25,1.0815051258489703
104.5,0.8865240463554249
104.75,0.6992643283434175
105.0,0.5304031083366211
105.25,0.3883975226368163
105.5,0.2790151229524115
105.75,0.2050965653742006
106.0,0.1665576239458072
106.25,0.1606177375509465
106.5,0.1822243199904236
106.75,0.2246273951625394
107.0,0.2800488813468564
107.25,0.3403857457507519
107.5,0.3978865254181761
107.75,0.4457461365985279
108.0,0.4785738091410839
108.25,0.4927023572755013
108.5,0.4863225396072638
108.75,0.459442530464918
109.0,0.4136880675324893
109.25,0.3519723145663994
109.5,0.2780747666425933
109.75,0.196174829960522
110.0,0.1103876083454208
110.25,0.0243469084462271
110.5,-0.0591260861109114
110.75,-0.1382398961636197
111.0,-0.2123191924266084
111.25,-0.2817575232539132
111.5,-0.3478464277475109
111.75,-0.4125028896336021
112.0,-0.4779265521216014
112.25,-0.5462243777314604
112.5,-0.6190429954826518
112.75,-0.6972476735951045
113.0,-0.780681885043391
113.25,-0.8680333201572286
113.5,-0.9568217435462472
113.75,-1.043512287856312
114.0,-1.12374572459967
114.25,-1.1926660571381658
114.5,-1.245316453099805
114.75,-1.277067900767557
115.0,-1.284041611043753
115.25,-1.263486368581514
115.5,-1.21407571868535
115.75,-1.13609670672911
116.0,-1.0315112363425056
116.25,-0.9038821392195596
116.5,-0.7581677734529827
116.75,-0.6004003593985797
117.0,-0.4372733334534724
117.25,-0.2756708878263078
117.5,-0.1221779039426637
117.75,0.0173897331542637
118.0,0.1383960597554388
118.25,0.237703650307299
118.5,0.3138740003644744
118.75,0.3672334959471882
119.0,0.3997998244245759
119.25,0.4150750737212272
119.5,0.4177225667568075
119.75,0.4131538016901092
120.0,0.4070589671617361
120.25,0.404918822758099
120.5,0.4115369637736182
120.75,0.4306295705066679
121.0,0.4645048783225352
121.25,0.5138572337427824
121.5,0.5776913563561996
121.75,0.6533820768748404
122.0,0.7368642105050369
122.25,0.8229371959536449
122.5,0.9056604611829786
122.75,0.978808817320563
123.0,1.0363530057378063
123.25,1.0729290952596264
123.5,1.084261788265651
123.75,1.067510667923638
124.0,1.0215146275228837
124.25,0.9469176287839745
124.5,0.8461678876473105
124.75,0.7233918740294205
125.0,0.5841534270829938
125.25,0.4351161759566885
125.5,0.2836337687764441
125.75,0.1372967433420808
126.0,0.0034669839175458
126.25,-0.1111694592970845
126.5,-0.2010027414232311
126.75,-0.2618285563589271
127.0,-0.2910879074045808
127.25,-0.2880054858257663
127.5,-0.2536219756222698
127.75,-0.1907226585700502
128.0,-0.1036711538430985
128.25,0.0018374362016096
128.5,0.1190856104212764
128.75,0.2406838713561908
129.0,0.3589405957238399
129.25,0.4662301341927367
129.5,0.5553398861904792
129.75,0.6197801842596667
130.0,0.6540446817053552
130.25,0.6538131998990313
130.5,0.6160932895927762
130.75,0.5393007553657135
131.0,0.4232828008029368
131.25,0.2692900664880669
131.5,0.0799055333628752
131.75,-0.1410609776525657
132.0,-0.3887041027686727
132.25,-0.6571722915034072
132.5,-0.9398289027081156
132.75,-1.2294204542879124
133.0,-1.5182492394778715
133.25,-1.7983491487147798
133.5,-2.061664782909955
133.75,-2.300234655632686
134.0,-2.5063793673087
134.25,-2.672895075189905
134.5,-2.7932514330107097
134.75,-2.861791556201913
135.0,-2.873929661002633
135.25,-2.8263400475822777
135.5,-2.7171292872590715
135.75,-2.545982069219067
136.0,-2.314270376116018
136.25,-2.0251156596424065
136.5,-1.6833945842698586
136.75,-1.2956807336849876
137.0,-0.8701173832767338
137.25,-0.4162199058541472
137.5,0.0553896053666825
137.75,0.533308606357326
138.0,1.0057300864245968
138.25,1.4608531480338156
138.5,1.887309794633596
138.75,2.274587237366752
139.0,2.6134239381882685
139.25,2.896157885959665
139.5,3.1170073245132377
139.75,3.272267284463238
140.0,3.360409673500542
140.25,3.382080110593767
140.5,3.3399908161299283
140.75,3.2387152918330933
141.0,3.0843967983177376
141.25,2.884388310383679
141.5,2.6468462693153194
141.75,2.380303682442606
142.0,2.093249655248077
142.25,1.7937421056889429
142.5,1.4890781611215365
142.75,1.185542673264296
143.0,0.8882496440676986
143.25,0.6010845015824163
143.5,0.3267475725685618
143.75,0.066891315268154
144.0,-0.1776635144718771
144.25,-0.4066540102351222
144.5,-0.6200697445493343
144.75,-0.8178450434531298
145.0,-0.9995788306165968
145.25,-1.1643103539862707
145.5,-1.3103751581093632
145.75,-1.435359594360007
146.0,-1.5361643592282432
146.25,-1.609178557506672
146.5,-1.6505562568966878
146.75,-1.6565781561757225
147.0,-1.6240725693072442
147.25,-1.55086313098863
147.5,-1.4362060577436169
147.75,-1.2811779098108405
148.0,-1.0889758636577924
148.25,-0.8650965799840493
148.5,-0.617366668440583
148.75,-0.3558071172933086
149.0,-0.0923252833696058
149.25,0.1597596279103623
149.5,0.3863390846199905
149.75,0.5732553369718331
150.0,0.7071183565061698
150.25,0.7761508897761367
150.5,0.7710079973834559
150.75,0.6855160496949462
151.0,0.5172784918644596
151.25,0.2681017381969239
151.5,-0.0557959907603667
151.75,-0.4438177653081778
152.0,-0.881273452901687
152.25,-1.3499125423219112
152.5,-1.8286834907396825
152.75,-2.2946840128192334
153.0,-2.7242538708663746
153.25,-3.094151679759617
153.5,-3.382750716550843
153.75,-3.5711861953009434
154.0,-3.644388138489976
154.25,-3.5919397702993563
154.5,-3.408710920148491
154.75,-3.0952286509945064
155.0,-2.6577624008583
155.25,-2.1081173809104103
155.5,-1.463146758184874
155.75,-0.7440092030668358
156.0,0.0247873004670752
156.25,0.8165027740701511
156.5,1.6033826734689631
156.75,2.3579097531486
157.0,3.054024010945347
157.25,3.668247591765103
157.5,4.180658384160299
157.75,4.575665995148297
158.0,4.842556135559798
158.25,4.975783361047528
158.5,4.975006695099236
158.75,4.844877005470318
159.0,4.594598261918534
159.25,4.237296223201308
159.5,3.789237084835104
159.75,3.26894474439323
160.0,2.6962683820845204
160.25,2.0914519840024464
160.5,1.4742544159729998
160.75,0.8631630174141343
161.0,0.2747358943117149
161.25,-0.2769012843038914
161.5,-0.7803885141456031
161.75,-1.2272898795093463
162.0,-1.612082675483629
162.25,-1.9319921770392243
162.5,-2.1866950771939324
162.75,-2.377920933118413
163.0,-2.508985251246345
163.25,-2.584289965734141
163.5,-2.6088269967187685
163.75,-2.5877184089893817
164.0,-2.52582262529716
164.25,-2.42743046818133
164.5,-2.296067868406989
164.75,-2.13441429850142
165.0,-1.9443378115768148
165.25,-1.7270394474843764
165.5,-1.4832921632115303
165.75,-1.2137527798235253
166.0,-0.9193200975723288
166.25,-0.6015086354616127
166.5,-0.2628056444025896
166.75,0.0930207262939824
167.0,0.4606919165716092
167.25,0.8332935790414965
167.5,1.2022736668752338
167.75,1.5575756358827617
168.0,1.887909612367616
168.25,2.1811549584790466
168.5,2.4248781899097667
168.75,2.6069412695785648
169.0,2.7161675209618448
169.25,2.7430263457956245
169.5,2.680294086949409
169.75,2.523647127954509
170.0,2.272144896978859
170.25,1.928564900837896
170.5,1.4995591182449397
170.75,0.9956106998915752
171.0,0.4307814397883177
171.25,-0.1777467795839469
171.5,-0.8103202062719861
171.75,-1.4456220319221378
172.0,-2.0616013593917097
172.25,-2.6364726924983573
172.5,-3.1497300245588806
172.75,-3.583116767156499
173.0,-3.921493714306095
173.25,-4.153552057401475
173.5,-4.272326957546894
173.75,-4.275478878113901
174.0,-4.165324068438899
174.25,-3.9486113522747552
174.5,-3.636058651284507
174.75,-3.2416783344117794
175.0,-2.7819344108748854
175.25,-2.274785756922954
175.5,-1.7386771394606886
175.75,-1.19154317260102
176.0,-0.6498892113455986
176.25,-0.1280075709997635
176.5,0.3626222858121177
176.75,0.8137141663499691
177.0,1.220316490328122
177.25,1.5807120317746075
177.5,1.8960908403285328
177.75,2.1700273077615257
178.0,2.407806209637584
178.25,2.6156530597263323
178.5,2.799930478280243
178.75,2.9663640167319847
179.0,3.119357871955841
179.25,3.2614533953215035
179.5,3.392971832657886
179.75,3.511868199756598
180.0,3.613806717083351
180.25,3.692451057727042
180.5,3.739946114917
180.75,3.747553327904696
181.0,3.7063899254145
181.25,3.608214625489108
181.5,3.4461989370400405
181.75,3.2156244630668733
182.0,2.9144523682710446
182.25,2.543720957134929
182.5,2.107740318972833
182.75,1.614068200125614
183.0,1.073267470357908
183.25,0.4984615102911572
183.5,-0.0952816517673812
183.75,-0.6916936588188917
184.0,-1.274127233576939
184.25,-1.826398711420168
184.5,-2.3335953645737204
184.75,-2.7827949673675123
185.0,-3.163652587552769
185.25,-3.4688201944513968
185.5,-3.694177449929143
185.75,-3.838865949841398
186.0,-3.90513311481712
186.25,-3.898004829165904
186.5,-3.824816854969615
186.75,-3.694643257252007
187.0,-3.5176650641340497
187.25,-3.304523929753412
187.5,-3.0657037295042424
187.75,-2.8109781273331
188.0,-2.5489547733749824
188.25,-2.2867376495411293
188.5,-2.029719016082854
188.75,-1.781502286224511
189.0,-1.543947783620617
189.25,-1.3173254183641008
189.5,-1.1005523814732348
189.75,-0.8914903282227417
190.0,-0.6872752964654102
190.25,-0.4846546664073734
190.5,-0.2803084962693336
190.75,-0.0711370917175675
191.0,0.145497888205334
191.25,0.3715857351310126
191.5,0.6083338901949171
191.75,0.8560868673731544
192.0,1.1142902753931303
192.25,1.381491291106022
192.5,1.6553664118090934
192.75,1.9327681738816935
193.0,2.2097845072953515
193.25,2.4818071190519664
193.5,2.74360830998207
193.75,2.989428454986385
194.0,3.213078576270367
194.25,3.4080636542282123
194.5,3.5677323154886027
194.75,3.685457225497411
195.0,3.754847967432767
195.25,3.769994638316934
195.5,3.72573619755997
195.75,3.617943219929784
196.0,3.4438006409858843
196.25,3.202072842425435
196.5,2.89333145549192
196.75,2.5201259055259877
197.0,2.087078178415292
197.25,1.6008865882204464
197.5,1.070228312436901
197.75,0.5055568122326402
198.0,-0.0812025037252066
198.25,-0.6770474638970878
198.5,-1.268367042208021
198.75,-1.84145762251374
