Time (s),Wave elevation (m)
0.0,3.214435316584262
0.25,3.214435316584262
0.5,3.335509333356121
0.75,3.416903300433368
1.0,3.456875564946463
1.25,3.455045293657167
1.5,3.4123899106307056
1.75,3.331149094945764
2.0,3.2146457171948213
2.25,3.0670404680434538
2.5,2.893041776281083
2.75,2.697595567926048
3.0,2.4855802824218363
3.25,2.261531310645205
3.5,2.029415799042272
3.75,1.7924738797439956
4.0,1.5531362743046793
4.25,1.3130214090980965
4.5,1.0730082533666074
4.75,0.8333746281505161
5.0,0.5939852717303308
5.25,0.3545099315456463
5.5,0.1146495056817464
5.75,-0.1256520493776939
6.0,-0.3660306853770247
6.25,-0.605577306376308
6.5,-0.8427771641578069
6.75,-1.0755198846230547
7.0,-1.3011798603097366
7.25,-1.516760209211178
7.5,-1.7190875339294558
7.75,-1.905039830343105
8.0,-2.071786515158446
8.25,-2.2170179670495287
8.5,-2.3391423582086883
8.75,-2.437429882312185
9.0,-2.512088590218595
9.25,-2.5642616071136923
9.5,-2.5959420821764576
9.75,-2.60980928395876
10.0,-2.608996225397654
10.25,-2.596805505596877
10.5,-2.576395161300072
10.75,-2.5504597883051128
11.0,-2.5209337056699987
11.25,-2.4887423281287977
11.5,-2.453625184772043
11.75,-2.414049341814304
12.0,-2.3672256767079696
12.25,-2.309232964310568
12.5,-2.235246625412269
12.75,-2.13986086186888
13.0,-2.017485378850344
13.25,-1.8627915538911863
13.5,-1.671178253193254
13.75,-1.439224896347414
14.0,-1.1650990600099864
14.25,-0.8488879500666344
14.5,-0.4928273482817538
14.75,-0.1014078757165762
15.0,0.3186538117485337
15.25,0.7585825081125002
15.5,1.2078450752865555
15.75,1.654569743856253
16.0,2.08606162296878
16.25,2.489385365948973
16.5,2.851981260660002
16.75,3.162278560921299
17.0,3.410269811289608
17.25,3.5880122364921263
17.5,3.690026795467647
17.75,3.713571911632793
18.0,3.658776730888608
18.25,3.528627478574491
18.5,3.3288094847049594
18.75,3.0674161131414563
19.0,2.7545435896609405
19.25,2.401797076627997
19.5,2.021737898490147
19.75,1.627304328298482
20.0,1.2312386969352591
20.25,0.8455518336015949
20.5,0.4810521842300885
20.75,0.146961707132222
21.0,-0.1493657643642745
21.25,-0.4026150851863067
21.5,-0.6095679194665999
21.75,-0.7690539403677293
22.0,-0.8818067123785368
22.25,-0.95024075769962
22.5,-0.9781697496741004
22.75,-0.9704876097040422
23.0,-0.9328344858171818
23.25,-0.871268260495686
23.5,-0.7919595820945567
23.75,-0.7009247363482345
24.0,-0.6038063313281226
24.25,-0.5057071497029958
24.5,-0.4110780123752974
24.75,-0.3236564497758871
25.0,-0.2464496826335133
25.25,-0.1817530822620155
25.5,-0.1311940252552774
25.75,-0.0957908924020291
26.0,-0.076017803202999
26.25,-0.0718673569424561
26.5,-0.0829059335027395
26.75,-0.1083187136685316
27.0,-0.1469442148586901
27.25,-0.1973005203477711
27.5,-0.2576072610237997
27.75,-0.3258085999067909
28.0,-0.399602856881829
28.25,-0.4764839639132716
28.5,-0.5537987141189812
28.75,-0.6288218952097724
29.0,-0.6988490784276195
29.25,-0.7613043144316939
29.5,-0.8138575372766819
29.75,-0.8545443646211528
30.0,-0.8818794476058502
30.25,-0.8949537587383102
30.5,-0.8935063336836357
30.75,-0.8779620453891551
31.0,-0.8494289424733197
31.25,-0.8096514000554663
31.5,-0.760918607199366
31.75,-0.7059314892835239
32.0,-0.6476347371863943
32.25,-0.5890238774443064
32.5,-0.5329399722958708
32.75,-0.4818663298994489
33.0,-0.4377423403603726
33.25,-0.4018091211250085
33.5,-0.3745000371808613
33.75,-0.3553864356099004
34.0,-0.3431852716640683
34.25,-0.3358309574169422
34.5,-0.3306090499641891
34.75,-0.3243446689930644
35.0,-0.3136341598367672
35.25,-0.2951048470950057
35.5,-0.2656850594242853
35.75,-0.2228651818314306
36.0,-0.1649304514228987
36.25,-0.0911475968374272
36.5,-0.0018901633214816
36.75,0.1013087072476052
37.0,0.2157824240950256
37.25,0.3378369763111896
37.5,0.4629321736329216
37.75,0.5859280241500099
38.0,0.7013813826996039
38.25,0.8038741856650937
38.5,0.8883520331328517
38.75,0.9504507876768538
39.0,0.9867893241769298
39.25,0.9952085670191078
39.5,0.9749403568978978
39.75,0.9266942629436136
40.0,0.8526558745854325
40.25,0.7563959866587875
40.5,0.642696012192175
40.75,0.5173004987651615
41.0,0.3866123935503084
41.25,0.2573503639689975
41.5,0.1361897823915506
41.75,0.0294097722332497
42.0,-0.0574320517139051
42.25,-0.1197777609311831
42.5,-0.1542843662262667
42.75,-0.1589648753281251
43.0,-0.1332491367192864
43.25,-0.0779639935435373
43.5,0.004762303997711
43.75,0.1116615647608777
44.0,0.2385390821462627
44.25,0.3805221809596297
44.5,0.5323254552047223
44.75,0.6885140865795982
45.0,0.8437478445654094
45.25,0.9929908442805696
45.5,1.1316756570611393
45.75,1.2558146344652028
46.0,1.3620559702826076
46.25,1.4476867134634115
46.5,1.5105892880364693
46.75,1.549161736853253
47.0,1.5622146051045094
47.25,1.54885891656947
47.5,1.508399963433091
47.75,1.4402506229265597
48.0,1.343875724933147
48.25,1.2187758100830015
48.5,1.0645147007658304
48.75,0.8807909771041154
49.0,0.6675490566485862
49.25,0.4251214748833729
49.5,0.1543904849800723
49.75,-0.1430454772525475
50.0,-0.4647163701184527
50.25,-0.807152276615824
50.5,-1.1657973255285956
50.75,-1.5349785474708475
51.0,-1.9079390570460832
51.25,-2.2769407735426257
51.5,-2.633437186000916
51.75,-2.968311771436334
52.0,-3.27217293963209
52.25,-3.535692145311396
52.5,-3.7499683839115696
52.75,-3.90689991817312
53.0,-3.999542941775013
53.25,-4.022437058886846
53.5,-3.971878938193339
53.75,-3.846128189329583
54.0,-3.645533228525642
54.25,-3.372569399195485
54.5,-3.031786592043071
54.75,-2.6296687387177893
55.0,-2.174412498088005
55.25,-1.6756368972668652
55.5,-1.1440393521212902
55.75,-0.5910161529978591
56.0,-0.0282670109462899
56.25,0.5325964522232033
56.5,1.0804193075506543
56.75,1.6048320912297518
57.0,2.0965258114396077
57.25,2.547462978163175
57.5,2.951018636015059
57.75,3.302049755351642
58.0,3.596895608133247
58.25,3.833315651324797
58.5,4.010374725693271
58.75,4.12828786435738
59.0,4.188238565764147
59.25,4.192184958287468
59.5,4.14266787427816
59.75,4.042633530555653
60.0,3.895281407711509
60.25,3.703945206439443
60.5,3.47201164287404
60.75,3.2028785523427628
61.0,2.899950530553654
61.25,2.566667369468429
61.5,2.2065580327728824
61.75,1.8233110170075204
62.0,1.4208507680304756
62.25,1.0034094273650742
62.5,0.57558357609293
62.75,0.1423667819761277
63.0,-0.2908494505917837
63.25,-0.7183114060358542
63.5,-1.1339779434783297
63.75,-1.5316338403342349
64.0,-1.9050382934689447
64.25,-2.248102452903828
64.5,-2.5550874802719448
64.75,-2.8208127311015128
65.0,-3.040862374645799
65.25,-3.211778170252097
65.5,-3.331226259028609
65.75,-3.3981267069403938
66.0,-3.4127361130863685
66.25,-3.376675799114484
66.5,-3.292900812444585
66.75,-3.1656080680963385
67.0,-3.000085260032986
67.25,-2.8025055169302884
67.5,-2.5796759767883084
67.75,-2.338751329984832
68.0,-2.0869257628458797
68.25,-1.831118475357275
68.5,-1.5776689273178808
68.75,-1.332058102554452
69.0,-1.0986713276450415
69.25,-0.8806165423541484
69.5,-0.6796094438836958
69.75,-0.4959337140369574
70.0,-0.3284807306344501
70.25,-0.1748689452714965
70.5,-0.03163869448605
70.75,0.1054861612097551
71.0,0.2412824575553186
71.25,0.3806740380892123
71.5,0.5283591691729529
71.75,0.688439889384128
72.0,0.8640748303074388
72.25,1.0571765450317026
72.5,1.2681726449517754
72.75,1.4958471184337596
73.0,1.7372742035814024
73.25,1.987852299292865
73.5,2.2414398745411868
73.75,2.490589476832014
74.0,2.726870083525525
74.25,2.941262536330199
74.5,3.124607996345884
74.75,3.268085573301659
75.0,3.363692787437141
75.25,3.404701516222393
75.5,3.386062676286289
75.75,3.304735112895285
76.0,3.159917932972972
76.25,2.9531706404639286
76.5,2.6884116397533817
76.75,2.3717926105601665
77.0,2.011453514868109
77.25,1.6171701284808844
77.5,1.1999125469462364
77.75,0.7713386724153182
78.0,0.3432508720833709
78.25,-0.0729534829131322
78.5,-0.4668062290227772
78.75,-0.8292372765063754
79.0,-1.1529611928365149
79.25,-1.4327594356242197
79.5,-1.6656424603749602
79.75,-1.8508832571360323
80.0,-1.9899217728636336
80.25,-2.086147646517218
80.5,-2.1445762036093137
80.75,-2.1714392320346803
81.0,-2.173717255039444
81.25,-2.158643482107795
81.5,-2.133211119669276
81.75,-2.1037151570845447
82.0,-2.075357145065661
82.25,-2.0519370276649904
82.5,-2.035650076948321
82.75,-2.026999820783751
83.0,-2.0248300379347857
83.25,-2.026470955930684
83.5,-2.027987269657955
83.75,-2.0245090161500854
84.0,-2.01062114119133
84.25,-1.9807841252566705
84.5,-1.92975652558182
84.75,-1.8529908234370016
85.0,-1.7469764803347918
85.25,-1.6095084013438477
85.5,-1.4398647480827256
85.75,-1.2388848054157966
86.0,-1.0089448802080234
86.25,-0.7538374595642185
86.5,-0.478565547550468
86.75,-0.189069746794675
87.0,0.10809015018109
87.25,0.4060748380418936
87.5,0.6981016650051455
87.75,0.9777538639269002
88.0,1.2392425550597066
88.25,1.4776058643381285
88.5,1.6888352559922302
88.75,1.869925577982175
89.0,2.018851840623777
89.25,2.1344818616919587
89.5,2.2164391171864706
89.75,2.2649340102481403
90.0,2.2805839924432187
90.25,2.264243355496728
90.5,2.216862019944222
90.75,2.1393893956770405
91.0,2.032734639333305
91.25,1.8977887730621763
91.5,1.735507644055497
91.75,1.5470481403337757
92.0,1.3339439991241755
92.25,1.0983024861521875
92.5,0.8429996530831994
92.75,0.5718501527217243
93.0,0.2897279237581205
93.25,0.0026165044587317
93.5,-0.2824278158682364
93.75,-0.5574106258145006
94.0,-0.8136349484436726
94.25,-1.0420326474388046
94.5,-1.2335782479440165
94.75,-1.379763904716247
95.0,-1.473107581385398
95.25,-1.507661572767426
95.5,-1.4794857687530778
95.75,-1.3870498345990463
96.0,-1.231530901649037
96.25,-1.0169783644371304
96.5,-0.7503247101733387
96.75,-0.4412305291480979
97.0,-0.101762380142733
97.25,0.2540866906226607
97.5,0.6110132253310826
97.75,0.9531252734847464
98.0,1.264731092113042
98.25,1.531149582947165
98.5,1.73949425714574
98.75,1.8793824743027316
99.0,1.94352487169886
99.25,1.928156150998283
99.5,1.8332773737118404
99.75,1.6626910871303962
100.0,1.4238232500019494
100.25,1.1273392276029957
100.5,0.7865741953731056
100.75,0.4168102469919378
101.0,0.0344425280814533
101.25,-0.343915886748584
101.5,-0.7023364141932912
101.75,-1.02642995048839
102.0,-1.3041024826552996
102.25,-1.5261655584939051
102.5,-1.6867650373789864
102.75,-1.7836031385393971
103.0,-1.817942042388311
103.25,-1.7943913048459736
103.5,-1.7204951811066194
103.75,-1.606148700237526
104.0,-1.4628821349601324
104.25,-1.3030616535375767
104.5,-1.1390588859571464
104.75,-0.9824435659862512
105.0,-0.8432512455906875
105.25,-0.7293724848365796
105.5,-0.6461012975335485
105.75,-0.5958695834642675
106.0,-0.578181566663391
106.25,-0.5897487584407989
106.5,-0.6248125933944706
106.75,-0.6756295495282194
107.0,-0.7330830838278323
107.25,-0.7873787810532684
107.5,-0.8287742332041271
107.75,-0.8482936322252596
108.0,-0.8383789281354459
108.25,-0.7934345034073331
108.5,-0.7102302469413825
108.75,-0.5881380926165278
109.0,-0.4291887868800796
109.25,-0.2379480421307935
109.5,-0.0212234576912102
109.75,0.2123751867302602
110.0,0.452990190545632
110.25,0.6901455712772202
110.5,0.9134086233289944
110.75,1.11303870221114
111.0,1.2805803793706192
111.25,1.4093628348341265
111.5,1.4948745712840648
111.75,1.534991690066709
112.0,1.5300483895481625
112.25,1.4827492783868117
112.5,1.3979337709062118
112.75,1.2822125148036745
113.0,1.1435038457244306
113.25,0.9905041522936664
113.5,0.8321294169286153
113.75,0.6769659056268914
114.0,0.532766040498205
114.25,0.4060211151834539
114.5,0.3016360854199996
114.75,0.2227237003287516
115.0,0.1705263451949173
115.25,0.1444648032279778
115.5,0.1423043719187862
115.75,0.1604210017683691
116.0,0.1941438836623712
116.25,0.2381465926497292
116.5,0.2868567459370322
116.75,0.3348542323018719
117.0,0.3772303334410772
117.25,0.4098842442099913
117.5,0.4297392340294823
117.75,0.4348674994131561
118.0,0.4245200967041493
118.25,0.3990656511358119
118.5,0.359848269320395
118.75,0.3089807527359326
119.0,0.2490934290792656
119.25,0.1830614162344674
119.5,0.1137337771846428
119.75,0.0436868242423012
120.0,-0.0249790626502756
120.25,-0.0907840519903726
120.5,-0.1529452177978842
120.75,-0.2113809033146113
121.0,-0.2666454379245324
121.25,-0.3198022808095219
121.5,-0.3722486000967806
121.75,-0.4255080730904156
122.0,-0.481011041950292
122.25,-0.5398819256553481
122.5,-0.6027529437464257
122.75,-0.6696208450581553
123.0,-0.7397596650141932
123.25,-0.8116978642763335
123.5,-0.8832629073784997
123.75,-0.9516908418672988
124.0,-1.0137931650002288
124.25,-1.0661686214138344
124.5,-1.1054439129571556
124.75,-1.128524893447176
125.0,-1.132838840318765
125.25,-1.1165489058748446
125.5,-1.0787238038161258
125.75,-1.019449024895863
126.0,-0.9398701473737716
126.25,-0.8421637875052492
126.5,-0.7294370475243633
126.75,-0.6055615677053776
127.0,-0.4749530881896101
127.25,-0.3423114255925965
127.5,-0.2123386815389959
127.75,-0.089455120254347
128.0,0.0224676285492383
128.25,0.1203375730045266
128.5,0.2020215990867841
128.75,0.26646059897728
129.0,0.3137126160165003
129.25,0.3449211414681324
129.5,0.3622108774164285
129.75,0.3685182655185963
130.0,0.367368525948158
130.25,0.3626145506315056
130.5,0.3581555094935413
130.75,0.3576542971124314
131.0,0.3642728984795376
131.25,0.380443407597654
131.5,0.407689901791795
131.75,0.4465128479203817
132.0,0.4963434490080074
132.25,0.5555706317387278
132.5,0.6216385512268038
132.75,0.6912078750207692
133.0,0.7603700075651044
133.25,0.8249000919061313
133.5,0.8805322814329356
133.75,0.9232395443108008
134.0,0.9495002026237882
134.25,0.9565344934216988
134.5,0.9424965708620634
134.75,0.9066103821113096
135.0,0.8492415261694932
135.25,0.771901289132414
135.5,0.6771832680000278
135.75,0.5686370748474494
136.0,0.450587299480349
136.25,0.3279089818999956
136.5,0.2057731343313559
136.75,0.0893772419920476
137.0,-0.016323889410166
137.25,-0.1068720715435317
137.5,-0.1785309562525762
137.75,-0.2284711539152489
138.0,-0.2549065470649193
138.25,-0.257176171762034
138.5,-0.2357692867702792
138.75,-0.1922944640101506
139.0,-0.1293965178405634
139.25,-0.0506276761652112
139.5,0.0397185504266742
139.75,0.1368009153864375
140.0,0.235440751117459
140.25,0.3303383097390788
140.5,0.4162849148358402
140.75,0.4883617763822861
141.0,0.5421178154369182
141.25,0.5737206345651902
141.5,0.5800767121901315
141.75,0.5589188528817798
142.0,0.5088607603285843
142.25,0.4294202039015583
142.5,0.3210135377198033
142.75,0.1849252476989703
143.0,0.0232567243789164
143.25,-0.1611414034108257
143.5,-0.364749248221089
143.75,-0.5834663236669854
144.0,-0.8127059449797827
144.25,-1.0474932344987642
144.5,-1.2825654126527732
144.75,-1.5124737935813222
145.0,-1.73168748596534
145.25,-1.9346991624905647
145.5,-2.1161333667484006
145.75,-2.270857660657715
146.0,-2.39409649112696
146.25,-2.481547009095208
146.5,-2.529495266669064
146.75,-2.534930325512028
147.0,-2.495652920043932
147.25,-2.4103745250582462
147.5,-2.2788020691367223
147.75,-2.101703193061776
148.0,-1.8809469403359325
148.25,-1.6195151271423205
148.5,-1.3214803879338366
148.75,-0.9919480183187036
149.0,-0.6369601982204586
149.25,-0.2633629073214141
149.5,0.1213622504447156
149.75,0.5092971268094453
150.0,0.8923109149318151
150.25,1.2623010152929226
150.5,1.6114416368582076
150.75,1.9324298881970332
151.0,2.218718621831352
151.25,2.464725375624349
151.5,2.666007437559585
151.75,2.819394338320252
152.0,2.9230709052377124
152.25,2.9766063100608617
152.5,2.980927196662752
152.75,2.938235840484888
153.0,2.851877206417473
153.25,2.7261615625166677
153.5,2.5661518000191763
153.75,2.377426643072829
154.0,2.165832363853124
154.25,1.9372363414377531
154.5,1.6972957472391343
154.75,1.451253783444404
155.0,1.2037742709295145
155.25,0.9588230566483766
155.5,0.7196018118345631
155.75,0.4885364868949592
156.0,0.2673191741617147
156.25,0.0569986239604597
156.5,-0.1418886115384059
156.75,-0.3291572496302123
157.0,-0.5047955727613789
157.25,-0.6687853103195437
157.5,-0.8209338913014775
157.75,-0.9607332867165008
158.0,-1.0872581084999031
158.25,-1.1991131607483163
158.5,-1.2944373790989538
158.75,-1.370967231392312
159.0,-1.4261584201803248
159.25,-1.457360390995874
159.5,-1.4620339923589978
159.75,-1.4379989361917525
160.0,-1.3836947333871508
160.25,-1.2984367545091613
160.5,-1.1826481628608203
160.75,-1.0380487933547622
161.0,-0.8677836374943586
161.25,-0.6764763942947903
161.5,-0.4701974317361058
161.75,-0.2563402721364877
162.0,-0.0434061031273606
162.25,0.1592984892800063
162.5,0.3420397107482476
162.75,0.4950945474537272
163.0,0.6092278880698889
163.25,0.6761846052259677
163.5,0.6891701985990799
163.75,0.6432928405591231
164.0,0.5359404617160731
164.25,0.3670688704147914
164.5,0.1393807254979057
164.75,-0.1416197067011413
165.0,-0.4677049454448064
165.25,-0.8281379449116301
165.5,-1.210015961360081
165.75,-1.598732541052771
166.0,-1.978538962498537
166.25,-2.3331807669985403
166.5,-2.646580516132811
166.75,-2.903534891767273
167.0,-3.090392888787127
167.25,-3.1956822344379336
167.5,-3.2106532926239004
167.75,-3.129713469335137
168.0,-2.9507303263840323
168.25,-2.6751879539569954
168.5,-2.3081883033556734
168.75,-1.8582967515489823
169.0,-1.3372387501088705
169.25,-0.7594615974268912
169.5,-0.1415817860953614
169.75,0.4982563137410291
170.0,1.1410807340687728
170.25,1.7678190640319822
170.5,2.360019655467697
170.75,2.900534970520454
171.0,3.374137646903671
171.25,3.768043739394311
171.5,4.072322638910782
171.75,4.280179078692565
172.0,4.388099079533568
172.25,4.395858314486999
172.5,4.306397842533748
172.75,4.1255781466537
173.0,3.8618276293291407
173.25,3.525705934824892
173.5,3.1294055122048063
173.75,2.6862166041569475
174.0,2.2099813130832318
174.25,1.7145615948553214
174.5,1.2133440622362055
174.75,0.7188014983315457
175.0,0.2421271825810602
175.25,-0.2070462550111995
175.5,-0.6208364673226694
175.75,-0.9932073557706208
176.0,-1.3199738993426051
176.25,-1.5987227035772336
176.5,-1.828658900029142
176.75,-2.010393094943656
177.0,-2.1456843146562243
177.25,-2.23715625415985
177.5,-2.288004577414529
177.75,-2.3017125584509808
178.0,-2.28179104532116
178.25,-2.231556663419387
178.5,-2.153959469191514
178.75,-2.0514680621175825
179.0,-1.926016622078417
179.25,-1.7790146320348044
179.5,-1.6114163484310884
179.75,-1.4238435683908357
180.0,-1.2167520802585303
180.25,-0.990629525037421
180.5,-0.7462103735785448
180.75,-0.4846924453588139
181.0,-0.2079389362044079
181.25,0.0813496736620474
181.5,0.3795081897349714
181.75,0.6818360107284824
182.0,0.982592582683902
182.25,1.2750649268653995
182.5,1.5517092106788684
182.75,1.8043640853763732
183.0,2.0245291947159765
183.25,2.203698094218183
183.5,2.333731045152606
183.75,2.407249987365676
184.0,2.4180356565313725
184.25,2.361405467001433
184.5,2.234550558329483
184.75,2.0368113731017625
185.0,1.769873303594388
185.25,1.437867254390713
185.5,1.0473642877605556
185.75,0.6072586530354278
186.0,0.1285391972179667
186.25,-0.3760448875862006
186.5,-0.8924121333854572
186.75,-1.4056533540029057
187.0,-1.9005906245514732
187.25,-2.3623649253100303
187.5,-2.77702430544846
187.75,-3.132083526656702
188.0,-3.417026849408015
188.25,-3.623727939416752
188.5,-3.746764716003737
188.75,-3.783612159118914
189.0,-3.734702371172368
189.25,-3.603348212513029
189.5,-3.3955341986052128
189.75,-3.119585633394574
190.0,-2.7857337213092386
190.25,-2.4056002350226886
190.5,-1.9916298505448933
190.75,-1.5565012008108523
191.0,-1.1125488420146707
191.25,-0.6712275797286453
191.5,-0.2426479868415972
191.75,0.1647923977872539
192.0,0.5446635222426218
192.25,0.8926312111668364
192.5,1.2064554397908775
192.75,1.4858623410482703
193.0,1.7323014426965082
193.25,1.9486065477610528
193.5,2.138584420048504
193.75,2.306559652695812
194.0,2.4569065136614245
194.25,2.593599024056606
194.5,2.7198090047760504
194.75,2.837578423282952
195.0,2.947587306705313
195.25,3.049032088404204
195.5,3.139621938051147
195.75,3.2156928643432288
196.0,3.2724316770680284
196.25,3.304194748357658
196.5,3.3049003806217403
196.75,3.268468861473616
197.0,3.189281260623979
197.25,3.0626268836586057
197.5,2.8851101014799454
197.75,2.654989952745581
198.0,2.3724302783136424
198.25,2.039643891420296
198.5,1.6609210274808948
