Time (s),Wave elevation (m)
0.0,1.9286611899506048
0.25,1.9286611899506048
0.5,2.019396624070408
0.75,2.068237636191512
1.0,2.073682479025704
1.25,2.0366773064227077
1.5,1.960436567728291
1.75,1.850005606765563
2.0,1.7116354028872929
2.25,1.552062618436059
2.5,1.3777974611527846
2.75,1.1945164147261804
3.0,1.0066378129043263
3.25,0.8171285972207881
3.5,0.6275548941360751
3.75,0.4383525332498699
4.0,0.2492615828004168
4.25,0.0598459572971827
4.5,-0.1299916455501759
4.75,-0.3195863875127697
5.0,-0.507250520341392
5.25,-0.6902196859597418
5.5,-0.8648175753134808
5.75,-1.0268152836270268
6.0,-1.1719301489998908
6.25,-1.2963853884387295
6.5,-1.3974399844017114
6.75,-1.4737999134201312
7.0,-1.5258369149105475
7.25,-1.5555676160503655
7.5,-1.566380336481229
7.75,-1.5625345020198034
8.0,-1.5484929921278336
8.25,-1.528175840600614
8.5,-1.5042403337885677
8.75,-1.4774950428023312
9.0,-1.4465429116470536
9.25,-1.4077224463279163
9.5,-1.3553794305465052
9.75,-1.2824590314126374
10.0,-1.1813651366797504
10.25,-1.044995931701501
10.5,-0.8678371491393866
10.75,-0.6469809268100482
11.0,-0.3829408483814217
11.25,-0.0801525363512293
11.5,0.2529179212663258
11.75,0.6040922431794059
12.0,0.9582111624984332
12.25,1.2982172303176809
12.5,1.606486779011702
12.75,1.866278955608436
13.0,2.0631550752201027
13.25,2.186223579889472
13.5,2.2290842804493103
13.75,2.1903779941439465
14.0,2.073890195050603
14.25,1.88820475377754
14.5,1.645950657093502
14.75,1.3627253817897969
15.0,1.0558088384394957
15.25,0.7427983931955217
15.5,0.4402970575768553
15.75,0.1627739993223971
16.0,-0.0783087118129471
16.25,-0.2750431544239893
16.5,-0.4232746146860211
16.75,-0.5224685434913262
17.0,-0.5752940677294297
17.25,-0.5869970453668957
17.5,-0.5646493113002284
17.75,-0.5163629990221669
18.0,-0.4505504070110158
18.25,-0.3752928899735328
18.5,-0.297859733186826
18.75,-0.2243934408967993
19.0,-0.1597548405051374
19.25,-0.107502869655007
19.5,-0.0699719756682057
19.75,-0.0484056827086404
20.0,-0.0431078347925298
20.25,-0.0535819713936946
20.5,-0.0786420755573582
20.75,-0.1164919351955283
21.0,-0.1647829316615376
21.25,-0.2206689590033882
21.5,-0.2808808574252873
21.75,-0.3418406440438398
22.0,-0.3998283950530985
22.25,-0.4512032614421233
22.5,-0.4926668706505311
22.75,-0.52154472307143
23.0,-0.5360515424161224
23.25,-0.5355018625935332
23.5,-0.5204286568097063
23.75,-0.492580795211226
24.0,-0.4547837779787814
24.25,-0.4106658068075827
24.5,-0.3642703917852642
24.75,-0.3195945387833994
25.0,-0.2801053630636375
25.25,-0.2482954216739882
25.5,-0.2253366562315339
25.75,-0.2108841546691376
26.0,-0.2030647027963754
26.25,-0.1986631309947931
26.5,-0.1934944749022855
26.75,-0.1829251992246322
27.0,-0.1624855173578292
27.25,-0.1285001556518957
27.5,-0.0786589649117751
27.75,-0.0124526837270437
28.0,0.0685872528838198
28.25,0.160884132161889
28.5,0.2590583621884905
28.75,0.3563987559801523
29.0,0.4455161651269443
29.25,0.519109512664159
29.5,0.5707589251269266
29.75,0.5956554292721722
30.0,0.591182347821037
30.25,0.5572795137641826
30.5,0.4965458288596391
30.75,0.4140655526953695
31.0,0.3169753646027351
31.25,0.213818807125372
31.5,0.1137585838756908
31.75,0.0257324663741622
32.0,-0.0423565191142595
32.25,-0.0843308679515782
32.5,-0.0962414237263752
32.75,-0.0766369767531362
33.0,-0.0265836930080224
33.25,0.0505531591556415
33.5,0.1495259341942429
33.75,0.2637596668197997
34.0,0.385972845991364
34.25,0.5087884933577109
34.5,0.6252670776177367
34.75,0.7293082510000425
35.0,0.8158900451722944
35.25,0.8811389332228934
35.5,0.922248628604488
35.75,0.93728634014647
36.0,0.9249396720459502
36.25,0.8842635931468149
36.5,0.8144841847321262
36.75,0.7149047144840286
37.0,0.5849416186542798
37.25,0.4242957551983177
37.5,0.2332409286980783
37.75,0.0129904381771783
38.0,-0.233913771067008
38.25,-0.5032535693639143
38.5,-0.7888930452175356
38.75,-1.0826984160698747
39.0,-1.3746583656881697
39.25,-1.6532211920419624
39.5,-1.9058394977697948
39.75,-2.1196875616255357
40.0,-2.2824941720135663
40.25,-2.3834173651714883
40.5,-2.413879233275446
40.75,-2.3682798086948385
41.0,-2.244518942296298
41.25,-2.044272944282121
41.5,-1.7729964830384066
41.75,-1.439647112305
42.0,-1.056156765053546
42.25,-0.6366986043753302
42.5,-0.1968161491420754
42.75,0.2475073146556078
43.0,0.6807583742925919
43.25,1.0887073243295862
43.5,1.4590646510701606
43.75,1.7819376877481354
44.0,2.050067430680658
44.25,2.2588487547638603
44.5,2.406158693897532
44.75,2.4920347857685616
45.0,2.5182570206464847
45.25,2.487891719383553
45.5,2.4048535478378623
45.75,2.2735334925578914
46.0,2.0985272895894296
46.25,1.884482319415581
46.5,1.6360634230968023
46.75,1.3580215415171475
47.0,1.0553353999403834
47.25,0.7333871128176116
47.5,0.3981284804265239
47.75,0.056196183178026
48.0,-0.285059272851403
48.25,-0.6176550218458472
48.5,-0.9331778717752444
48.75,-1.2231016272784778
49.0,-1.4791992656052204
49.25,-1.694016288289103
49.5,-1.8613616677079117
49.75,-1.976767313886572
50.0,-2.037866536090378
50.25,-2.044646711601004
50.5,-1.9995409526812309
50.75,-1.907337175177494
51.0,-1.7748994228107595
51.25,-1.610714105518324
51.5,-1.4242913174133494
51.75,-1.2254669297529448
52.0,-1.023663139945131
52.25,-0.8271722855040377
52.5,-0.6425300685079587
52.75,-0.474039431991423
53.0,-0.3234952899368385
53.25,-0.1901438253111183
53.5,-0.0708893859959059
53.75,0.0392611363080233
54.0,0.1465500676204277
54.25,0.2576720687602778
54.5,0.3789012437704582
54.75,0.5152261259744031
55.0,0.6695799881633211
55.25,0.8422489482082128
55.5,1.0305268028012142
55.75,1.2286642767334592
56.0,1.4281331417336638
56.25,1.6181948987511618
56.5,1.7867324233219737
56.75,1.9212743816654207
57.0,2.010119478224437
57.25,2.0434533909053583
57.5,2.014347513877912
57.75,1.9195362523724069
58.0,1.7598882999472432
58.25,1.540515551526726
58.5,1.2704984218621025
58.75,0.9622448291077296
59.0,0.6305379273321712
59.25,0.2913607062685323
59.5,-0.0393899197727003
59.75,-0.347173854492334
60.0,-0.6199378268458642
60.25,-0.8489926699626784
60.5,-1.029551692336895
60.75,-1.160879375443286
61.0,-1.2460408541809356
61.25,-1.2912851365027682
61.5,-1.305134037841932
61.75,-1.2972799122212986
62.0,-1.2774148776554657
62.25,-1.2541200739640312
62.5,-1.2339348563647337
62.75,-1.2207037084629264
63.0,-1.2152656363519925
63.25,-1.2155107635072782
63.5,-1.2167865084267009
63.75,-1.2125960940408556
64.0,-1.1954998790959677
64.25,-1.158108882293002
64.5,-1.0940522851957908
64.75,-0.9988073760061592
65.0,-0.87030029838514
65.25,-0.7092164308177157
65.5,-0.5189962803730898
65.75,-0.3055316754896122
66.0,-0.0766128453881429
66.25,0.1587948134269604
66.5,0.3913483261902811
66.75,0.6120990172072761
67.0,0.8131478041090237
67.25,0.9881140327221768
67.5,1.1323776991090504
67.75,1.2430891276433005
68.0,1.3189740754320882
68.25,1.3599910502615378
68.5,1.3669173015449705
68.75,1.3409476747337443
69.0,1.2833851717214306
69.25,1.1954843315245354
69.5,1.0784809025775413
69.75,0.933807642762014
70.0,0.7634613209803606
70.25,0.5704552598418148
70.5,0.359269791285041
70.75,0.13620345047094
71.0,-0.090467357794221
71.25,-0.3105930398774705
71.5,-0.5125606267342128
71.75,-0.6840086679055031
72.0,-0.812802690663493
72.25,-0.8881845424970446
72.5,-0.9019749702559756
72.75,-0.8496881248369683
73.0,-0.7314129036397354
73.25,-0.5523306992299752
73.5,-0.3227714332652981
73.75,-0.0577566291640449
74.0,0.2239653772114391
74.25,0.5013276895959404
74.5,0.7526770779509987
74.75,0.9576667455164348
75.0,1.0991192200156206
75.25,1.1646628840888598
75.5,1.1479620368352923
75.75,1.0493980576939177
76.0,0.8761144772489531
76.25,0.6414055865451737
76.5,0.3634991400786654
76.75,0.0638505712710432
77.0,-0.2348788992405599
77.25,-0.51095139941335
77.5,-0.7455664189291464
77.75,-0.9245486633181664
78.0,-1.0395338330427943
78.25,-1.0885314726747484
78.5,-1.075812818745797
78.75,-1.011146216970292
79.0,-0.908474599117261
79.25,-0.7841904260694452
79.5,-0.6552064211161838
79.75,-0.537040458012249
80.0,-0.4421279480527317
80.25,-0.3785457529373801
80.5,-0.3492816443746671
80.75,-0.3521186477610501
81.0,-0.3801319281746226
81.25,-0.4227256300768796
81.5,-0.4670764315852624
81.75,-0.4998064515703999
82.0,-0.5086854410893168
82.25,-0.4841631874760313
82.5,-0.4205572101867815
82.75,-0.3167648531310697
83.0,-0.1764272052529434
83.25,-0.0075377470623077
83.5,0.1784466400913002
83.75,0.3678782662855562
84.0,0.5464191852842573
84.25,0.7005917946419085
84.5,0.8192007634683233
84.75,0.8944677339659906
85.0,0.9227584008896256
85.25,0.9048326675231344
85.5,0.8456061436564037
85.75,0.7534682374716823
86.0,0.6392517284750466
86.25,0.5149853181795718
86.5,0.3925803192574019
86.75,0.2826036220706979
87.0,0.1932719546267106
87.25,0.129769992864694
87.5,0.0939516179613828
87.75,0.0844352454929651
88.0,0.097056771247273
88.25,0.1256030389801882
88.5,0.1627195301862944
88.75,0.2008712973564381
89.0,0.2332371726478093
89.25,0.254433139889935
89.5,0.2609887884312961
89.75,0.251536876778508
90.0,0.2267152710276079
90.25,0.1888177395006371
90.5,0.1412605972735883
90.75,0.087952364317942
91.0,0.0326612643571876
91.25,-0.0215299165378964
91.5,-0.0726091363502981
91.75,-0.1198141536452429
92.0,-0.1635901952326031
92.25,-0.2053432321060957
92.5,-0.2470345313049692
92.75,-0.2906836217653715
93.0,-0.3378584087232708
93.25,-0.3892315990140995
93.5,-0.4442720739537716
93.75,-0.5011200245638059
94.0,-0.5566683917760619
94.25,-0.6068440665009065
94.5,-0.6470543319787315
94.75,-0.6727408826229293
95.0,-0.679968439577105
95.25,-0.6659694388481905
95.5,-0.6295711254581144
95.75,-0.5714459199626917
96.0,-0.4941481660002428
96.25,-0.4019273895085418
96.5,-0.3003365006413658
96.75,-0.1956793318610195
97.0,-0.0943622596044614
97.25,-0.0022268844907459
97.5,0.0760566158634467
97.75,0.1374630397068996
98.0,0.1808962386675756
98.25,0.2072501649768634
98.5,0.2192400794041871
98.75,0.2210244785024541
99.0,0.2176629724415276
99.25,0.2144743933908705
99.5,0.2163706452408659
99.75,0.2272440081345033
100.0,0.2494786806896053
100.25,0.2836422628839359
100.5,0.3283915790784792
100.75,0.3806023248303908
101.0,0.435706459502692
101.25,0.4881980192117876
101.5,0.5322496964621162
101.75,0.5623710804578542
102.0,0.5740359777959888
102.25,0.5642108880902974
102.5,0.5317287119793265
102.75,0.4774695344093315
103.0,0.404331680376548
103.25,0.3169986967997186
103.5,0.2215289719422602
103.75,0.1248121334465188
104.0,0.0339484497127144
104.25,-0.0443868410961521
104.5,-0.1045333125455513
104.75,-0.1423354335166674
105.0,-0.1554913676757325
105.25,-0.1437345860828711
105.5,-0.1088396544962
105.75,-0.0544604785564419
106.0,0.014175877589156
106.25,0.0906853254490137
106.5,0.168011374237165
106.75,0.2389344887291277
107.0,0.2965646334659304
107.25,0.3347814501724795
107.5,0.3485952475857511
107.75,0.334412185914826
108.0,0.2901974059811764
108.25,0.2155391985165899
108.5,0.1116246967603677
108.75,-0.0188575853560107
109.0,-0.1718709586835635
109.25,-0.342222580027046
109.5,-0.5237799080600557
109.75,-0.7097010812599913
110.0,-0.8926730316906164
110.25,-1.0651550756527723
110.5,-1.2196285160205098
110.75,-1.3488539387013267
111.0,-1.4461371612134757
111.25,-1.5056022825378772
111.5,-1.522466376913867
111.75,-1.4933057027796022
112.0,-1.4162986554398682
112.25,-1.2914269272516206
112.5,-1.1206142417547642
112.75,-0.907782219025218
113.0,-0.6588057691698722
113.25,-0.3813559374278236
113.5,-0.0846260281675165
113.75,0.2210535254779748
114.0,0.5246956220514719
114.25,0.8152061841485356
114.5,1.0819682623460654
114.75,1.3154195613804252
115.0,1.507579686913603
115.25,1.6524847428613332
115.5,1.746492468126994
115.75,1.7884306187831946
116.0,1.7795740563071665
116.25,1.723450872337675
116.5,1.625493441463866
116.75,1.4925649586051095
117.0,1.3324042021002436
117.25,1.1530395614303728
117.5,0.962226717760152
117.75,0.7669621865467442
118.0,0.5731172186898866
118.25,0.3852239113254378
118.5,0.2064289762002933
118.75,0.0386121011844614
119.0,-0.1173528175863276
119.25,-0.261232023982403
119.5,-0.3930131209434321
119.75,-0.5124917832670883
120.0,-0.6189233374713606
120.25,-0.7107923664799801
120.5,-0.7857407015760566
120.75,-0.840675940854179
121.0,-0.8720608077073683
121.25,-0.8763605608121364
121.5,-0.8506038770735436
121.75,-0.7929947222562965
122.0,-0.7035009636067852
122.25,-0.5843415500877132
122.5,-0.4402988803105332
122.75,-0.2787964568973906
123.0,-0.1097030819960402
123.25,0.0551482231299698
123.5,0.202708321675993
123.75,0.3196787193934685
124.0,0.3936216856183464
124.25,0.4141177493137984
124.5,0.3738626034305297
124.75,0.2695938496798957
125.0,0.1027474159483763
125.25,-0.1202366300786841
125.5,-0.3880103857016502
125.75,-0.6848330059272919
126.0,-0.9914826277106968
126.25,-1.28650644779081
126.5,-1.5477171491052166
126.75,-1.7538186497427932
127.0,-1.8860292203524045
127.25,-1.929566971256772
127.5,-1.8748719753073495
127.75,-1.7184600828867365
128.0,-1.4633338884867997
128.25,-1.1189134798999638
128.5,-0.7004900587253929
128.75,-0.2282454985849159
129.0,0.2740832657882301
129.25,0.7807876638689287
129.5,1.265892728806466
129.75,1.7048507873723988
130.0,2.0760945220235065
130.25,2.362335527560866
130.5,2.5515188787296763
130.75,2.637375304852473
131.0,2.619547315269656
131.25,2.503300817294666
131.5,2.2988663136415872
131.75,2.02048095612836
132.0,1.685222493618391
132.25,1.311737194376374
132.5,0.9189657069812888
132.75,0.52496394350208
133.0,0.1459015560814987
133.25,-0.2046998513136698
133.5,-0.5164508774356069
133.75,-0.7822887248192134
134.0,-0.998394795980902
134.25,-1.1638707620025874
134.5,-1.2802263038068689
134.75,-1.350744043406386
135.0,-1.3797932123533867
135.25,-1.3721631954625295
135.5,-1.3324815871771187
135.75,-1.2647695932858658
136.0,-1.1721716487164493
136.25,-1.0568774141107784
136.5,-0.9202344343828212
136.75,-0.763030325518102
137.0,-0.5859059917882256
137.25,-0.3898475101887438
137.5,-0.1766951575922068
137.75,0.0503955249929493
138.0,0.2866032673437906
138.25,0.525255315291226
138.5,0.7578464096522299
138.75,0.9742838636351834
139.0,1.1633583261586886
139.25,1.313416750453891
139.5,1.4131918054251398
139.75,1.45272263028293
140.0,1.4242874863811334
140.25,1.3232612289694694
140.5,1.148810811771909
140.75,0.9043507692855512
141.0,0.5976975175258479
141.25,0.2408852580365242
141.5,-0.1503646443875556
141.75,-0.5574972743273636
142.0,-0.960245984845386
142.25,-1.3379399569378565
142.5,-1.670893891463726
142.75,-1.9417640970109435
143.0,-2.13675379517861
143.25,-2.246560356397536
143.5,-2.266977897167764
143.75,-2.1990985449242584
144.0,-2.0490920030355264
144.25,-1.8275823267392093
144.5,-1.5486791067057588
144.75,-1.228753573599396
145.0,-0.8850749099908372
145.25,-0.5344355200433978
145.5,-0.1918945375015471
145.75,0.1302438226485278
146.0,0.4231251943155229
146.25,0.6816557057185998
146.5,0.9044110967351306
146.75,1.0931691323758426
147.0,1.2521294328379344
147.25,1.3869171062771657
147.5,1.5034882837035992
147.75,1.607064436165761
148.0,1.7012172435663382
148.25,1.7872073634979495
148.5,1.863650783133581
148.75,1.926548850044556
149.0,1.9696767746967545
149.25,1.985284990324882
149.5,1.965032737960056
149.75,1.901047477913811
150.0,1.7869900074840583
150.25,1.61900489975483
150.5,1.3964489490414116
150.75,1.122315089093682
151.0,0.8033028133966373
151.25,0.4495245968597918
151.5,0.0738768296081418
151.75,-0.3088610177374178
152.0,-0.6831076951219178
152.25,-1.0336335532365668
152.5,-1.346672638569535
152.75,-1.6108874637534267
153.0,-1.8180988326448304
153.25,-1.963720185479799
153.5,-2.046868355501854
153.75,-2.0701565870191243
154.0,-2.0392073302415867
154.25,-1.9619483064915968
154.5,-1.8477730482466612
154.75,-1.7066550651629129
155.0,-1.5483026840567342
155.25,-1.3814303580005625
155.5,-1.213203753732031
155.75,-1.048892852939307
156.0,-0.8917426515739287
156.25,-0.7430477941249962
156.5,-0.602398221681088
156.75,-0.4680495320715997
157.0,-0.3373652455305999
157.25,-0.2072785803155138
157.5,-0.074727813782172
157.75,0.0629697382390489
158.0,0.207826674406012
158.25,0.3609852364129038
158.5,0.5226036528128113
158.75,0.6918161853464239
159.0,0.8667493670660741
159.25,1.0445766435567898
159.5,1.2215971159344694
159.75,1.393330186342319
160.0,1.554625085495253
160.25,1.6997908538646604
160.5,1.8227568387080493
160.75,1.9172750398020288
161.0,1.977173148649106
161.25,1.996661013514928
161.5,1.9706843233861289
161.75,1.8953088861122849
162.0,1.768108680607271
162.25,1.5885226882244474
162.5,1.3581409736038152
162.75,1.0808807741301223
163.0,0.7630190178105941
163.25,0.4130585210928236
163.5,0.0414201620513368
163.75,-0.340029037786775
164.0,-0.7185838408430602
164.25,-1.0814002698192446
164.5,-1.4162297440285887
164.75,-1.7121242866430204
165.0,-1.9600493693850385
165.25,-2.1533482765163523
165.5,-2.288015758556999
165.75,-2.3627577795933283
166.0,-2.378836229365372
166.25,-2.339720030392153
166.5,-2.250584459359656
166.75,-2.117716271536265
167.0,-1.9478914403086032
167.25,-1.7477938445477432
167.5,-1.5235368213697382
167.75,-1.2803358796625106
168.0,-1.0223616489493783
168.25,-0.7527796143437896
168.5,-0.4739600652179597
168.75,-0.1878207440059315
169.0,0.1037515594595055
169.25,0.3984638161451372
169.5,0.6932291229060361
169.75,0.9838876026684166
170.0,1.2650814283909542
170.25,1.5303105915920174
170.5,1.7721737872181766
170.75,1.982775933250248
171.0,2.154263115693092
171.25,2.2794296015776845
171.5,2.352331880937619
171.75,2.368842583546098
172.0,2.327082760423276
172.25,2.2276836998949383
172.5,2.073847623494148
172.75,1.871198119238811
173.0,1.6274335074011237
173.25,1.3518169361829913
173.5,1.0545535639002288
173.75,0.7461159099914452
174.0,0.436582273040477
174.25,0.1350497644421164
174.5,-0.1508264365407081
174.75,-0.4151312276552429
175.0,-0.6538073892863868
175.25,-0.8645951636243654
175.5,-1.0468145214106517
175.75,-1.2010267170363582
176.0,-1.3286226704561914
176.25,-1.4313908688884314
176.5,-1.5111165137035474
176.75,-1.5692569152930502
177.0,-1.6067266629443548
177.25,-1.6238113637133045
177.5,-1.6202125527554794
177.75,-1.5952106123106295
178.0,-1.547918951807363
178.25,-1.4775927299007092
178.5,-1.383950005927433
178.75,-1.2674628055688058
179.0,-1.1295800134248408
179.25,-0.9728525768290958
179.5,-0.8009431083317607
179.75,-0.6185152143816813
180.0,-0.4310112445773516
180.25,-0.2443391934328214
180.5,-0.0644989481306626
180.75,0.1028159524684714
181.0,0.2526028993635096
181.25,0.3808850450486872
181.5,0.4849660140258505
181.75,0.5635827523528059
182.0,0.6169452968808329
182.25,0.6466634777000279
182.5,0.6555713121334852
182.75,0.6474690076772076
183.0,0.6268091797409339
183.25,0.5983575198453137
183.5,0.5668584801874653
183.75,0.5367336908221668
184.0,0.5118352524769718
184.25,0.4952684868351815
184.5,0.4892901070133022
184.75,0.4952791149173386
185.0,0.5137700393259692
185.25,0.5445322690771818
185.5,0.586675854197686
185.75,0.6387635908445151
186.0,0.6989114809322239
186.25,0.7648644273137023
186.5,0.8340406416576871
186.75,0.9035458127912716
187.0,0.9701655716623404
187.25,1.0303511332788728
187.5,1.0802172366137226
187.75,1.1155729062881152
188.0,1.132003718658506
188.25,1.1250191615031666
188.5,1.0902707471161843
188.75,1.0238365908988265
189.0,0.9225573467883974
189.25,0.7843980508921872
189.5,0.6088019742625173
189.75,0.3969973167112606
190.0,0.1522164904294412
190.25,-0.1202085857357526
190.5,-0.4129033042574771
190.75,-0.7166747392918256
191.0,-1.0209032212305782
191.25,-1.314083462918759
191.5,-1.5844806627888737
191.75,-1.820852466793943
192.0,-2.0131773647474334
192.25,-2.153325510732292
192.5,-2.23560999372558
192.75,-2.2571654167505457
193.0,-2.218115648267031
193.25,-2.121512397726444
193.5,-1.97304880467458
193.75,-1.7805750529104007
194.0,-1.553463510439192
194.25,-1.3018865943118143
194.5,-1.0360794780929572
194.75,-0.7656606461598298
195.0,-0.4990758257351844
195.25,-0.2432156736988529
195.5,-0.0032364059026597
195.75,0.2174122216597733
196.0,0.4167725636943937
196.25,0.5940222111332657
196.5,0.7490358248294913
196.75,0.8819364961181432
197.0,0.9927078117058497
197.25,1.0809286457210776
197.5,1.1456749617787751
