Time (s),Wave elevation (m)
0.0,3.2144353165843422
0.25,3.2144353165843422
0.5,3.3656610401173466
0.75,3.4470627269858523
1.0,3.4561374650428385
1.25,3.3944621773711794
1.5,3.2673942795471502
1.75,3.083342677942605
2.0,2.8527256714788214
2.25,2.586771030726765
2.5,2.296329101921307
2.75,1.9908606912103004
3.0,1.6777296881738768
3.25,1.3618809953679814
3.5,1.045924823560126
3.75,0.7305875554164494
4.0,0.4154359713340282
4.25,0.0997432621619717
4.5,-0.216652742583627
4.75,-0.5326439791879493
5.0,-0.8454175339023194
5.25,-1.1503661432662355
5.5,-1.4413626255224683
5.75,-1.7113588060450438
6.0,-1.953216914999818
6.25,-2.1606423140645488
6.5,-2.329066640669519
6.75,-2.456333189033552
7.0,-2.543061524850912
7.25,-2.5926126934172764
7.5,-2.6106338941353817
7.75,-2.604224170033005
8.0,-2.58082165354639
8.25,-2.546959734334358
8.5,-2.507067222980946
8.75,-2.462491738003885
9.0,-2.4109048527450905
9.25,-2.3462040772131947
9.5,-2.258965717577508
9.75,-2.1374317190210625
10.0,-1.9689418944662516
10.25,-1.741659886169169
10.5,-1.4463952485656444
10.75,-1.078301544683414
11.0,-0.6382347473023688
11.25,-0.1335875605853818
11.5,0.4215298687772099
11.75,1.0068204052990104
12.0,1.5970186041640553
12.25,2.1636953838628017
12.5,2.677477965019504
12.75,3.11046492601406
13.0,3.438591792033505
13.25,3.6437059664824543
13.5,3.715140467415517
13.75,3.650629990239913
14.0,3.4564836584176706
14.25,3.1470079229625663
14.5,2.7432510951558364
14.75,2.271208969649662
15.0,1.7596813973991596
15.25,1.237997321992536
15.5,0.7338284292947586
15.75,0.2712899988706621
16.0,-0.1305145196882451
16.25,-0.458405257373316
16.5,-0.7054576911433685
16.75,-0.8707809058188768
17.0,-0.958823446215717
17.25,-0.9783284089448254
17.5,-0.9410821855003804
17.75,-0.8606049983702783
18.0,-0.7509173450183604
18.25,-0.6254881499558878
18.5,-0.4964328886447102
18.75,-0.373989068161332
19.0,-0.2662580675085629
19.25,-0.1791714494250117
19.5,-0.1166199594470107
19.75,-0.0806761378477335
20.0,-0.0718463913208827
20.25,-0.0893032856561573
20.5,-0.1310701259289299
20.75,-0.1941532253258812
21.0,-0.274638219435896
21.25,-0.3677815983389803
21.5,-0.4681347623754796
21.75,-0.5697344067397332
22.0,-0.6663806584218309
22.25,-0.752005435736873
22.5,-0.8211114510842183
22.75,-0.8692412051190505
23.0,-0.8934192373602035
23.25,-0.8925031043225554
23.5,-0.8673810946828442
23.75,-0.8209679920187096
24.0,-0.7579729632979688
24.25,-0.684443011345971
24.5,-0.6071173196421062
24.75,-0.5326575646389987
25.0,-0.4668422717727294
25.25,-0.4138257027899806
25.5,-0.3755610937192233
25.75,-0.3514735911152297
26.0,-0.3384411713272923
26.25,-0.3311052183246554
26.5,-0.322490791503809
26.75,-0.3048753320410535
27.0,-0.2708091955963815
27.25,-0.2141669260864929
27.5,-0.1310982748529585
27.75,-0.0207544728784058
28.0,0.1143120881396997
28.25,0.2681402202698149
28.5,0.4317639369808185
28.75,0.5939979266335876
29.0,0.742526941878241
29.25,0.8651825211069316
29.5,0.9512648752115448
29.75,0.992759048786954
30.0,0.9853039130350614
30.25,0.928799189606971
30.5,0.8275763814327324
30.75,0.6901092544922829
31.0,0.5282922743378924
31.25,0.3563646785422868
31.5,0.1895976397928178
31.75,0.0428874439569372
32.0,-0.0705941985237659
32.25,-0.1405514465859638
32.5,-0.1604023728772915
32.75,-0.1277282945885614
33.0,-0.0443061550133711
33.25,0.0842552652594027
33.5,0.2492098903237384
33.75,0.4395994446996657
34.0,0.6432880766522723
34.25,0.8479808222628511
34.5,1.0421117960295607
34.75,1.2155137516667371
35.0,1.3598167419538234
35.25,1.4685648887048224
35.5,1.5370810476741457
35.75,1.5621439002441155
36.0,1.5415661200765838
36.25,1.473772655244691
36.5,1.35747364122021
36.75,1.191507857473381
37.0,0.9749026977571328
37.25,0.7071595919971954
37.5,0.3887348811634636
37.75,0.0216507302952974
38.0,-0.3898562851116804
38.25,-0.8387559489398573
38.5,-1.3148217420292263
38.75,-1.8044973601164584
39.0,-2.2910972761469504
39.25,-2.75536865340327
39.5,-3.1763991629496573
39.75,-3.532812602709224
40.0,-3.804156953355944
40.25,-3.972362275285814
40.5,-4.023132055459076
40.75,-3.947133014491397
41.0,-3.740864903827163
41.25,-3.4071215738035345
41.5,-2.9549941383973417
41.75,-2.399411853841667
42.0,-1.7602612750892428
42.25,-1.0611643406255504
42.5,-0.3280269152367923
42.75,0.4125121910926797
43.0,1.134597290487653
43.25,1.8145122072159767
43.5,2.431774418450268
43.75,2.969896146246892
44.0,3.416779051134431
44.25,3.764747924606433
44.5,4.010264489829221
44.75,4.153391309614269
45.0,4.197095034410808
45.25,4.146486198972587
45.5,4.008089246396437
45.75,3.789222487596487
46.0,3.497545482649049
46.25,3.1408038656926345
46.5,2.726772371828005
46.75,2.263369235861913
47.0,1.758892333233972
47.25,1.22231185469602
47.5,0.6635474673775392
47.75,0.0936603052967107
48.0,-0.4750987880856717
48.25,-1.0294250364097457
48.5,-1.5552964529587403
48.75,-2.038502712130796
49.0,-2.4653321093420337
49.25,-2.823360480481838
49.5,-3.102269446179853
49.75,-3.294612189810954
50.0,-3.396444226817296
50.25,-3.4077445193350067
50.5,-3.3325682544687174
50.75,-3.1788952919624904
51.0,-2.9581657046845984
51.25,-2.684523509197207
51.5,-2.373818862355582
51.75,-2.042444882921575
52.0,-1.7061052332418845
52.25,-1.3786204758400624
52.5,-1.070883447513265
52.75,-0.7900657199857054
53.0,-0.5391588165613984
53.25,-0.3169063755185313
53.5,-0.1181489766598431
53.75,0.0654352271800393
54.0,0.2442501127007133
54.25,0.4294534479337961
54.5,0.6315020729507639
54.75,0.8587102099573384
55.0,1.1159666469388685
55.25,1.4037482470136873
55.5,1.717544671335357
55.75,2.047773794555765
56.0,2.38022190288944
56.25,2.6969914979186025
56.5,2.9778873722032904
56.75,3.202123969442368
57.0,3.35019913037406
57.25,3.4057556515089296
57.5,3.357245856463186
57.75,3.1992270872873445
58.0,2.933147166578739
58.25,2.56752591921121
58.5,2.1174973697701707
58.75,1.6037413818462167
59.0,1.050896545553619
59.25,0.4856011771142212
59.5,-0.0656498662878336
59.75,-0.5786230908205563
60.0,-1.033229711409773
60.25,-1.4149877832711302
60.5,-1.7159194872281582
60.75,-1.934798959072142
61.0,-2.076734756968226
61.25,-2.1521418941712795
61.5,-2.1752233964032204
61.75,-2.1621331870354967
62.0,-2.1290247960924424
62.25,-2.0902001232733856
62.5,-2.056558093941222
62.75,-2.0345061807715443
63.0,-2.02544272725332
63.25,-2.0258512725121305
63.5,-2.027977514044501
63.75,-2.020993490068093
64.0,-1.9924997984932808
64.25,-1.9301814704883369
64.5,-1.823420475326318
64.75,-1.664678960010265
65.0,-1.4505004973085676
65.25,-1.1820273846961933
65.5,-0.8649938006218167
65.75,-0.5092194591493545
66.0,-0.127688075646905
66.25,0.2646580223782669
66.5,0.6522472103171358
66.75,1.020165028678793
67.0,1.3552463401817052
67.25,1.6468567212036278
67.5,1.887296165181752
67.75,2.071815212738833
68.0,2.1982901257201477
68.25,2.2666517504358965
68.5,2.2781955025749503
68.75,2.2349127912229085
69.0,2.1389752862023843
69.25,1.992473885874226
69.5,1.7974681709625684
69.75,1.5563460712700232
70.0,1.2724355349672678
70.25,0.9507587664030251
70.5,0.5987829854750683
70.75,0.2270057507849001
71.0,-0.1507789296570343
71.25,-0.5176550664624504
71.5,-0.8542677112236877
71.75,-1.140014446509172
72.0,-1.3546711511058216
72.25,-1.4803075708284077
72.5,-1.5032916170932935
72.75,-1.41614687472828
73.0,-1.219021506066225
73.25,-0.9205511653832924
73.5,-0.5379523887754972
73.75,-0.0962610486067414
74.0,0.3732756286857317
74.25,0.835546149326567
74.5,1.2544617965849971
74.75,1.596111242527391
75.0,1.8318653666927
75.25,1.9411048068147665
75.5,1.9132700613921525
75.75,1.7489967628231964
76.0,1.4601907954149211
76.25,1.069009310908623
76.5,0.6058319001311088
76.75,0.1064176187850716
77.0,-0.3914648320676004
77.25,-0.8515856656889162
77.5,-1.242610698215244
77.75,-1.540914438863611
78.0,-1.7325563884046566
78.25,-1.8142191211245808
78.5,-1.7930213645763289
78.75,-1.685243694950486
79.0,-1.5141243318621016
79.25,-1.3069840434490745
79.5,-1.092010701860307
79.75,-0.895067430020415
80.0,-0.7368799134212185
80.25,-0.6309095882289665
80.5,-0.5821360739577784
80.75,-0.5868644129350837
81.0,-0.6335532136243713
81.25,-0.7045427167947994
81.5,-0.7784607193087714
81.75,-0.8330107526173343
82.0,-0.8478090684821944
82.25,-0.806938645793386
82.5,-0.7009286836446357
82.75,-0.5279414218851166
83.0,-0.2940453420882395
83.25,-0.0125629117705123
83.5,0.297411066818834
83.75,0.6131304438092597
84.0,0.910698642140429
84.25,1.1676529910698468
84.5,1.3653346057805382
84.75,1.490779556609984
85.0,1.5379306681493754
85.25,1.508054445871891
85.5,1.409343572760674
85.75,1.2557803957861378
86.0,1.0654195474584116
86.25,0.85830886363262
86.5,0.6543005320956699
86.75,0.4710060367844966
87.0,0.3221199243778516
87.25,0.2162833214411567
87.5,0.1565860299356381
87.75,0.1407254091549419
88.0,0.1617612854121223
88.25,0.209338398300313
88.5,0.2711992169771581
88.75,0.3347854955940636
89.0,0.3887286210796828
89.25,0.4240552331498912
89.5,0.4349813140521605
89.75,0.4192281279641799
90.0,0.3778587850460125
90.25,0.3146962325010616
90.5,0.2354343287893139
90.75,0.1465872738632372
91.0,0.0544354405953128
91.25,-0.035883194229827
91.5,-0.1210152272504968
91.75,-0.1996902560754053
92.0,-0.272650325387672
92.25,-0.3422387201768267
92.5,-0.4117242188416155
92.75,-0.4844727029422856
93.0,-0.5630973478721182
93.25,-0.6487193316901659
93.5,-0.7404534565896201
93.75,-0.8352000409396767
94.0,-0.9277806529601028
94.25,-1.011406777501511
94.5,-1.0784238866312188
94.75,-1.121234804371549
95.0,-1.1332807326285077
95.25,-1.1099490647469843
95.5,-1.0492852090968576
95.75,-0.952409866604486
96.0,-0.8235802766670713
96.25,-0.6698789825142358
96.5,-0.5005608344022766
96.75,-0.3261322197683661
97.0,-0.1572704326741018
97.25,-0.0037114741512428
97.5,0.1267610264390781
97.75,0.2291050661781661
98.0,0.3014937311126264
98.25,0.3454169416281061
98.5,0.3654001323403126
98.75,0.3683741308374242
99.0,0.3627716207358804
99.25,0.3574573223181181
99.5,0.3606177420681101
99.75,0.3787400135575055
100.0,0.4157978011493423
100.25,0.4727371048065602
100.5,0.5473192984641326
100.75,0.6343372080506527
101.0,0.7261774325044873
101.25,0.8136633653529786
101.5,0.8870828274368603
101.75,0.9372851340964232
102.0,0.9567266296599808
102.25,0.9403514801504956
102.5,0.8862145199655436
102.75,0.7957825573488848
103.0,0.6738861339609118
103.25,0.528331161332865
103.5,0.3692149532370993
103.75,0.2080202224108643
104.0,0.0565807495211898
104.25,-0.0739780684935879
104.5,-0.1742221875759195
104.75,-0.2372257225277799
105.0,-0.2591522794595541
105.25,-0.239557643471452
105.5,-0.181399424160333
105.75,-0.0907674642607367
106.0,0.0236264626485933
106.25,0.1511422090816898
106.5,0.2800189570619422
106.75,0.3982241478818801
107.0,0.4942743891098846
107.25,0.5579690836207992
107.5,0.5809920793095861
107.75,0.5573536431913773
108.0,0.4836623433019613
108.25,0.3592319975276512
108.5,0.1860411612672792
108.75,-0.0314293089266829
109.0,-0.286451597805939
109.25,-0.5703709667117433
109.5,-0.8729665134334255
109.75,-1.1828351354333182
110.0,-1.487788386151027
110.25,-1.7752584594212868
110.5,-2.032714193367516
110.75,-2.2480898978355457
111.0,-2.410228602022459
111.25,-2.5093371375631293
111.5,-2.5374439615231115
111.75,-2.488842837966004
112.0,-2.3604977590664467
112.25,-2.152378212086035
112.5,-1.8676904029246075
112.75,-1.51297036504203
113.0,-1.0980096152831205
113.25,-0.635593229046373
113.5,-0.1410433802791948
113.75,0.3684225424632897
114.0,0.8744927034191209
114.25,1.3586769735808923
114.5,1.8032804372434412
114.75,2.192365935634042
115.0,2.51263281152267
115.25,2.7541412381022217
115.5,2.910820780211657
115.75,2.9807176979719903
116.0,2.965956760511945
116.25,2.87241812056279
116.5,2.709155735773111
116.75,2.48760826434185
117.0,2.220673670167073
117.25,1.921732602383956
117.5,1.6037111962669202
117.75,1.278270310911241
118.0,0.9551953644831448
118.25,0.6420398522090633
118.5,0.3440482936671557
118.75,0.0643535019741025
119.0,-0.195588029310546
119.25,-0.4353867066373383
119.5,-0.6550218682390534
119.75,-0.8541529721118144
120.0,-1.031538895785601
120.25,-1.1846539441333006
120.5,-1.3095678359600944
120.75,-1.4011265680902985
121.0,-1.4534346795122806
121.25,-1.4606009346868936
121.5,-1.4176731284559063
121.75,-1.3216578704271615
122.0,-1.1725016060113085
122.25,-0.973902583479522
122.5,-0.733831467184222
122.75,-0.464660761495651
123.0,-0.1828384699934002
123.25,0.0919137052166169
123.5,0.3378472027933214
123.75,0.5327978656557811
124.0,0.6560361426972436
124.25,0.6901962488563306
124.5,0.6231043390508831
124.75,0.4493230827998253
125.0,0.171245693247294
125.25,-0.2003943834644738
125.5,-0.6466839761694166
125.75,-1.141388343212154
126.0,-1.652471046184495
126.25,-2.144177412984684
126.5,-2.579528581842028
126.75,-2.923031082904655
127.0,-3.143382033920674
127.25,-3.215944952094621
127.5,-3.12478662551225
127.75,-2.8641001381445603
128.0,-2.4388898141446664
128.25,-1.8648557998332729
128.5,-1.1674834312089877
128.75,-0.3804091643081936
129.0,0.4568054429803839
129.25,1.3013127731148817
129.5,2.1098212146774427
129.75,2.8414179789539964
130.0,3.460157536705844
130.25,3.9372258792681096
130.5,4.2525314645494605
130.75,4.395625508087455
131.0,4.365912192116092
131.25,4.172168028824443
131.5,3.831443856069313
131.75,3.3674682602139336
132.0,2.808704156030652
132.25,2.1862286572939555
132.5,1.531609511635481
132.75,0.8749399058368001
133.0,0.243169260135831
133.25,-0.341166418856116
133.5,-0.8607514623926784
133.75,-1.3038145413653557
134.0,-1.663991326634836
134.25,-1.9397846033376445
134.5,-2.133710506344781
134.75,-2.2512400723439767
135.0,-2.2996553539223106
135.25,-2.286938659104215
135.5,-2.220802645295198
135.75,-2.1079493221431096
136.0,-1.9536194145274148
136.25,-1.7614623568512973
136.5,-1.5337240573047015
136.75,-1.2717172091968378
137.0,-0.9765099863137086
137.25,-0.6497458503145734
137.5,-0.2944919293203452
137.75,0.0839925416549153
138.0,0.4776721122396503
138.25,0.8754255254853761
138.5,1.263077349420383
138.75,1.6238064393919722
139.0,1.938930543597815
139.25,2.1890279174231506
139.5,2.355319675708566
139.75,2.4212043838048825
140.0,2.373812477301889
140.25,2.205435381615784
140.5,1.9146846862865143
140.75,1.5072512821425854
141.0,0.9961625292097468
141.25,0.4014754300608735
141.5,-0.2506077406459258
141.75,-0.9291621238789394
142.0,-1.600409974742309
142.25,-2.2298999282297607
142.5,-2.7848231524395426
142.75,-3.2362734950182386
143.0,-3.561256325297684
143.25,-3.7442672606625593
143.5,-3.7782964952796063
143.75,-3.6651642415404297
144.0,-3.4151533383925443
144.25,-3.0459705445653493
144.5,-2.5811318445095988
144.75,-2.04792262266566
145.0,-1.4751248499847291
145.25,-0.8907258667389962
145.5,-0.3198242291692451
145.75,0.2170730377475462
146.0,0.7052086571925388
146.25,1.1360928428643324
146.5,1.5073518278918845
146.75,1.8219485539597375
147.0,2.086882388063223
147.25,2.3115285104619425
147.5,2.505813806172666
147.75,2.6784407269429344
148.0,2.835362072610564
148.25,2.97867893916325
148.5,3.1060846385559686
148.75,3.210914750074259
149.0,3.282794624494592
149.25,3.3088083172081366
149.5,3.27505456326676
149.75,3.168412463189684
150.0,2.978316679140096
150.25,2.698341499591383
150.5,2.32741491506902
150.75,1.8705251484894692
151.0,1.338838022327728
151.25,0.7492076614329861
151.5,0.1231280493469027
151.75,-0.5147683628956972
152.0,-1.1385128252031973
152.25,-1.722722588727612
152.5,-2.244454397615891
152.75,-2.6848124395890443
153.0,-3.030164721074718
153.25,-3.272866975799665
153.5,-3.4114472591697567
153.75,-3.4502609783652067
154.0,-3.3986788837359767
154.25,-3.269913844152661
154.5,-3.079621747077769
154.75,-2.844425108604854
155.0,-2.5805044734278897
155.25,-2.302383930000936
155.5,-2.02200625622005
155.75,-1.7481547548988443
156.0,-1.486237752623214
156.25,-1.2384129902083267
156.5,-1.003997036135147
156.75,-0.780082553452666
157.0,-0.5622754092176667
157.25,-0.3454643005258562
157.5,-0.1245463563036202
157.75,0.1049495637317487
158.0,0.3463777906766871
158.25,0.6016420606881733
158.5,0.8710060880213522
158.75,1.1530269755773728
159.0,1.4445822784434572
159.25,1.7409610725946485
159.5,2.035995193224115
159.75,2.3222169772371983
160.0,2.591041809158755
160.25,2.832984756441101
160.5,3.0379280645134155
160.75,3.195458399670049
161.0,3.2952885810818424
161.25,3.3277683558582125
161.5,3.284473872310215
161.75,3.1588481435204745
162.0,2.9468478010121184
162.25,2.6475378137074124
162.5,2.263568289339693
162.75,1.8014679568835377
163.0,1.2716983630176568
163.25,0.6884308684880394
163.5,0.0690336034188945
163.75,-0.5667150629779584
164.0,-1.1976397347384335
164.25,-1.8023337830320747
164.5,-2.360382906714314
164.75,-2.8535404777383664
165.0,-3.266748948975064
165.25,-3.588913794193921
165.5,-3.813359597594998
165.75,-3.937929632655546
166.0,-3.964727048942288
166.25,-3.899533383986922
166.5,-3.75097409893276
166.75,-3.5295271192271085
167.0,-3.246485733847672
167.25,-2.912989740912905
167.5,-2.53922803561623
167.75,-2.133893132770851
168.0,-1.7039360815822977
168.25,-1.2546326905729828
168.5,-0.789933442029933
168.75,-0.31303457334322
169.0,0.1729192657658421
169.25,0.664106360241895
169.5,1.1553818715100606
169.75,1.639812671114027
170.0,2.108469047318257
170.25,2.5505176526533626
170.5,2.95362297869696
170.75,3.30462655541708
171.0,3.590438526155152
171.25,3.799049335962807
171.5,3.920553134896033
171.75,3.948070972576831
172.0,3.8784712673721273
172.25,3.712806166491563
172.5,3.4564127058235807
172.75,3.118663532064685
173.0,2.7123891790018733
173.25,2.253028226971652
173.5,1.7575892731670484
173.75,1.2435265166524083
174.0,0.7276371217341285
174.25,0.2250829407368606
174.5,-0.2513773942345133
174.75,-0.6918853794254045
175.0,-1.0896789821439776
175.25,-1.440991939373942
175.5,-1.7446908690177525
175.75,-2.0017111950605964
176.0,-2.214371117426986
176.25,-2.385651448147384
176.5,-2.518527522839244
176.75,-2.6154281921550835
177.0,-2.677877771573924
177.25,-2.706352272855508
177.5,-2.700354254592465
177.75,-2.65868435385105
178.0,-2.5798649196789394
178.25,-2.462654549834516
178.5,-2.306583343212388
178.75,-2.112438009281343
179.0,-1.882633355708068
179.25,-1.6214209613818258
179.5,-1.3349051805529348
179.75,-1.0308586906361354
180.0,-0.7183520742955856
180.25,-0.4072319890547021
180.5,-0.107498246884438
180.75,0.1713599207807852
181.0,0.4210048322725159
181.25,0.6348084084144784
181.5,0.8082766900430839
181.75,0.9393045872546762
182.0,1.0282421614680544
182.25,1.0777724628333798
182.5,1.092618853555809
182.75,1.079115012795346
183.0,1.0446819662348896
183.25,0.9972625330755231
183.5,0.9447641336457752
183.75,0.8945561513702773
184.0,0.853058754128287
184.25,0.8254474780586358
184.5,0.8154835116888375
184.75,0.825465191528898
185.0,0.8562833988766154
185.25,0.9075537817953028
185.5,0.977793090329477
185.75,1.0646059847408584
186.0,1.1648524682203731
186.25,1.274774045522837
186.5,1.3900677360961455
186.75,1.5059096879854528
187.0,1.6169426194372347
187.25,1.7172518887981216
187.5,1.800362061022871
187.75,1.85928817714686
188.0,1.886672864430844
188.25,1.8750319358386107
188.5,1.817117911860308
188.75,1.7063943181647103
189.0,1.5375955779806625
189.25,1.3073300848203118
189.5,1.0146699571041962
189.75,0.661662194518768
190.0,0.2536941507157353
190.25,-0.2003476428929206
190.5,-0.6881721737624616
190.75,-1.19445789881971
191.0,-1.7015053687176305
191.25,-2.1901391048645986
191.5,-2.640801104648121
191.75,-3.0347541113232386
192.0,-3.3552956079123897
192.25,-3.5888758512204872
192.5,-3.7260166562092993
192.75,-3.7619423612509086
193.0,-3.6968594137783857
193.25,-3.53585399621074
193.5,-3.288414674457633
193.75,-2.967625088184001
194.0,-2.589105850731986
194.25,-2.1698109905196894
194.5,-1.7267991301549288
194.75,-1.27610107693305
195.0,-0.8317930428919734
195.25,-0.4053594561647552
195.5,-0.0053940098377667
195.75,0.3623537027662888
196.0,0.6946209394906568
196.25,0.990037018555443
196.5,1.248393041382485
196.75,1.469894160196905
197.0,1.6545130195097502
197.25,1.801547742868463
197.5,1.909458269631292
197.75,1.9760144235058603
198.0,1.998742804230279
198.25,1.975613379066521
198.5,1.9058666789101035
198.75,1.7908543771909289
