Time (s),Wave elevation (m)
0.0,1.0714784388614205
0.25,1.0714784388614205
0.5,1.1440039872403605
0.75,1.1455398085749635
1.0,1.0792748542090167
1.25,0.9584014965028096
1.5,0.8013228948389215
1.75,0.6257826937243592
2.0,0.4442932142824286
2.25,0.2625299486736403
2.5,0.0810020548283783
2.75,-0.1011097179004749
3.0,-0.2819392493232901
3.25,-0.4547272240202486
3.5,-0.6085209801082083
3.75,-0.7315207874552332
4.0,-0.8155542395150686
4.25,-0.859554739910631
4.5,-0.8702419271632142
4.75,-0.8593420016007126
5.0,-0.8381897088977275
5.25,-0.8118019104623285
5.5,-0.7749701832328555
5.75,-0.7123540952862975
6.0,-0.6031379744043394
6.25,-0.4290577246162542
6.5,-0.1831774421060118
6.75,0.1237390043430993
7.0,0.4618179547786808
7.25,0.7866306079927916
7.5,1.0487411061686258
7.75,1.2055758426011678
8.0,1.2321131818985218
8.25,1.1272226495520092
8.5,0.9138451018153528
8.75,0.6331167207443268
9.0,0.3343417254031916
9.25,0.0638195244086065
9.5,-0.1443871419507731
9.75,-0.2735435300819974
10.0,-0.3244682333317022
10.25,-0.3116785804080971
10.5,-0.2572833265391898
10.75,-0.1847346627213965
11.0,-0.1140984057858945
11.25,-0.0595941974204274
11.5,-0.0292094256408519
11.75,-0.0255684639423532
12.0,-0.047123756303367
12.25,-0.0890697906426365
12.5,-0.1439195444947622
12.75,-0.2021176222422868
13.0,-0.253168418019326
13.25,-0.2874854924413287
13.5,-0.2986694383365835
13.75,-0.2854661646316532
14.0,-0.2525082437334505
14.25,-0.2092276391079579
14.5,-0.1669766577745841
14.75,-0.1351535428317299
15.0,-0.1176705483239452
15.25,-0.1111601379447196
15.5,-0.105807648450375
15.75,-0.0887765642601294
16.0,-0.0491897771171651
16.25,0.0170610508054915
16.5,0.1044915295306992
16.75,0.1984060605718511
17.0,0.2786187556596493
17.25,0.3254526050136058
17.5,0.3260913865662032
17.75,0.2791539058864946
18.0,0.1959053195726599
18.25,0.0976301382423703
18.5,0.0099715845690609
18.75,-0.0439646748008623
19.0,-0.0495871457670334
19.25,-0.0041119487441268
19.5,0.0836118363877626
19.75,0.196336386532058
20.0,0.3133307428940253
20.25,0.415193765390889
20.5,0.4870549354289159
20.75,0.5194647682785295
21.0,0.507283105387374
21.25,0.4476723498322877
21.5,0.3385856023176682
21.75,0.1788094822004217
22.0,-0.0301752259803891
22.25,-0.2811860296367348
22.5,-0.5585451222598904
22.75,-0.8370197325393803
23.0,-1.0835623384070243
23.25,-1.262000727312883
23.5,-1.3397773915038338
23.75,-1.2950330709289983
24.0,-1.1220640381289886
24.25,-0.8335588025105889
24.5,-0.4589143753583716
24.75,-0.0390459189649493
25.0,0.3809295901010698
25.25,0.7592397705854208
25.5,1.0634158373320988
25.75,1.273458968672694
26.0,1.381924837989107
26.25,1.391544337583167
26.5,1.311611219624082
26.75,1.1545186002694847
27.0,0.933512875992438
27.25,0.6621033626186921
27.5,0.3548565946898244
27.75,0.0287590615202013
28.0,-0.2958777369966818
28.25,-0.5958194813362625
28.5,-0.8469798001994925
28.75,-1.0278894555878872
29.0,-1.123724790482585
29.25,-1.1297312466676828
29.5,-1.0529040965673448
29.75,-0.9111727734093444
30.0,-0.7299828549427149
30.25,-0.5369096608185273
30.5,-0.3555639340952934
30.75,-0.20037470933037
31.0,-0.0737365659762013
31.25,0.033526124537041
31.5,0.1382884557151651
31.75,0.258734550461951
32.0,0.4071493241296757
32.25,0.5839880960012099
32.5,0.7751274935481903
32.75,0.9534181270566734
33.0,1.08446398141546
33.25,1.1352734017369743
33.5,1.0834522470914716
33.75,0.9242736707873912
34.0,0.6734198479064966
34.25,0.3643636988150187
34.5,0.0409196612051059
34.75,-0.253032461826899
35.0,-0.4837349902198606
35.25,-0.6347070083538674
35.5,-0.7088197836775827
35.75,-0.7248078896600777
36.0,-0.7094613078719983
36.25,-0.6880770421126544
36.5,-0.6762396820523758
36.75,-0.6754823091980091
37.0,-0.6740288523500266
37.25,-0.6521008678184417
37.5,-0.5897779040852199
37.75,-0.4746418938066403
38.0,-0.3066586869682392
38.25,-0.0988466208116763
38.5,0.1261680691857609
38.75,0.3421845730724633
39.0,0.5257456294449074
39.25,0.6605681436021844
39.5,0.7388691181569962
39.75,0.759742030393075
40.0,0.7259620503325055
40.25,0.6411695332988094
40.5,0.5090617465627725
40.75,0.3351403428588413
41.0,0.1301678284397021
41.25,-0.0866180792577853
41.5,-0.2867852817846341
41.75,-0.4360270552161583
42.0,-0.5015414191193426
42.25,-0.4617044631597872
42.5,-0.3149290176609934
42.75,-0.0842940864821408
43.0,0.1844989569424492
43.25,0.4322728555075459
43.5,0.600643177073108
43.75,0.6474709378621152
44.0,0.5587975180807943
44.25,0.353349058509986
44.5,0.0778602939704255
44.75,-0.2056704125380922
45.0,-0.4370726683521511
45.25,-0.5742588125950229
45.5,-0.6036721288222759
45.75,-0.5418077453171355
46.0,-0.4275670401199994
46.25,-0.3081577306303389
46.5,-0.2232815316596047
46.75,-0.1927831607037659
47.0,-0.2116416136134866
47.25,-0.2536302637127889
47.5,-0.2820440111248345
47.75,-0.2635886744118301
48.0,-0.1806135255987318
48.25,-0.0376107668434489
48.5,0.140001686482301
48.75,0.3141166799669463
49.0,0.446163570389427
49.25,0.5090909858286107
49.5,0.495162699733069
49.75,0.417231928333936
50.0,0.3034708817437268
50.25,0.1877151394240142
50.5,0.0988936576593646
50.75,0.0530567239227839
51.0,0.0503541928755038
51.25,0.0774398798394757
51.5,0.113891262374551
51.75,0.139999882482197
52.0,0.1430930012418365
52.25,0.1203784334851253
52.5,0.0777803700409124
52.75,0.0257655514424733
53.0,-0.0258214863210513
53.25,-0.0717278923397216
53.5,-0.1125649186493807
53.75,-0.153098450248698
54.0,-0.1985212687820451
54.25,-0.2504657380976349
54.5,-0.3045703194301139
54.75,-0.3507373038558382
55.0,-0.3761014900056316
55.25,-0.3696177696337698
55.5,-0.3265004816050321
55.75,-0.2507612484223943
56.0,-0.154779945225188
56.25,-0.0559375704384164
56.5,0.0285733983648781
56.75,0.0869679102452764
57.0,0.1162977140472259
57.25,0.1228993670502932
57.5,0.1197137705306594
57.75,0.1214147840130361
58.0,0.1390277735543813
58.25,0.1758710651238631
58.5,0.2261782422746511
58.75,0.2768383432225096
59.0,0.3116502555367234
59.25,0.3166788418713114
59.5,0.2849804096975841
59.75,0.219214872380262
60.0,0.1313701420329553
60.25,0.0397376619051022
60.5,-0.0359050161489375
60.75,-0.0794754364919728
61.0,-0.0826899223775328
61.25,-0.0470588625923309
61.5,0.0165910391295441
61.75,0.0907380688906135
62.0,0.155088019867506
62.25,0.1907496208257841
62.5,0.1837279123840011
62.75,0.127143688865647
63.0,0.0220121906863199
63.25,-0.1232270003873236
63.5,-0.2940428130598254
63.75,-0.4716144316489613
64.0,-0.6348348426397241
64.25,-0.7624146150746381
64.5,-0.8350911929541852
64.75,-0.837937573453451
65.0,-0.76263562268406
65.25,-0.6093937986408359
65.5,-0.3880423718373532
65.75,-0.1178244719424425
66.0,0.1744292947302471
66.25,0.4577151573966196
66.5,0.7014046182098153
66.75,0.8800873119248162
67.0,0.9776626274973252
67.25,0.989703483232558
67.5,0.9234771899530536
67.75,0.7955857787130435
68.0,0.627825464754818
68.25,0.4423695004846864
68.5,0.2575812750793693
68.75,0.0855776080041712
69.0,-0.0678828600636509
69.25,-0.2013629730748393
69.5,-0.3144646511777877
69.75,-0.404659763491886
70.0,-0.465606495211361
70.25,-0.4878540449652196
70.5,-0.4620067712592075
70.75,-0.3834783296379335
71.0,-0.2572298355867553
71.25,-0.1006259200760798
71.5,0.057104341453716
71.75,0.179403390275139
72.0,0.2302945476274148
72.25,0.1838691735527907
72.5,0.0328162037980789
72.75,-0.206579262923105
73.0,-0.4948103518965267
73.25,-0.7754042586295794
73.5,-0.985991999390973
73.75,-1.071754441199824
74.0,-0.9980454350955807
74.25,-0.7590736237612907
74.5,-0.3804405465680721
74.75,0.0851622150033823
75.0,0.5681113875238101
75.25,0.9954744258553768
75.5,1.3049408698061256
75.75,1.455962044697779
76.0,1.4358173405549974
76.25,1.2596529479416438
76.5,0.96500264851333
76.75,0.6025208098995374
77.0,0.2253519013819778
77.25,-0.1203929922079665
77.5,-0.4021298045531498
77.75,-0.6032881090471565
78.0,-0.7218865601293868
78.25,-0.7662230519588111
78.5,-0.7492865326701605
78.75,-0.6836257745139099
79.0,-0.5780944502126756
79.25,-0.4372374494935718
79.5,-0.2632635606028645
79.75,-0.0597669321950795
80.0,0.1641936275491929
80.25,0.391228326017802
80.5,0.5952766652992771
80.75,0.7444523292008477
81.0,0.8068207139446085
81.25,0.7579207644591186
81.5,0.5881432187309685
81.75,0.3078444454052928
82.0,-0.0515671702718458
82.25,-0.4414219509121992
82.5,-0.8040439913271623
82.75,-1.0837836809701396
83.0,-1.2382338390021022
83.25,-1.246800929069384
83.5,-1.1143664943936973
83.75,-0.8690248481066087
84.0,-0.5544872194024354
84.25,-0.2192329452219578
84.5,0.094593824630324
84.75,0.3594993909121635
85.0,0.5659924995162496
85.25,0.7203256327869115
85.5,0.8376979061218469
85.75,0.9333634785395516
86.0,1.0146765801558262
86.25,1.076720133236777
86.5,1.1029370498288735
86.75,1.0705142006927468
87.0,0.9587039943647536
87.25,0.7573142800855217
87.5,0.4725541800359997
87.75,0.128287784883494
88.0,-0.2377819300525463
88.25,-0.5818922076158708
88.5,-0.863671167818194
88.75,-1.054546827106284
89.0,-1.1428400568423611
89.25,-1.1343776561331282
89.5,-1.0488472641880873
89.75,-0.9133166746249292
90.0,-0.7549925740631989
90.25,-0.5952459126975481
90.5,-0.4462771589879469
90.75,-0.3108203269799873
91.0,-0.1843494635042231
91.25,-0.0586546484495788
91.5,0.0744642261709987
91.75,0.2203308373664412
92.0,0.3797657317652905
92.25,0.5486068106415211
92.5,0.7180023482217786
92.75,0.8751105341046548
93.0,1.0040613996527037
93.25,1.0872986591910807
93.5,1.107538404021719
93.75,1.050455996644186
94.0,0.9078691533863033
94.25,0.6807730453667863
94.5,0.3813093553038989
94.75,0.0327884448993322
95.0,-0.3327112614757883
95.25,-0.6789659202092279
95.5,-0.971524363443894
95.75,-1.1834886526469215
96.0,-1.299647547045094
96.25,-1.3178721649382186
96.5,-1.247483439369784
96.75,-1.1052229119062522
97.0,-0.9101864471481038
97.25,-0.6793577720046904
97.5,-0.4251027786103719
97.75,-0.1552484604670951
98.0,0.12457124291326
98.25,0.40743617816021
98.5,0.6820644033491998
98.75,0.9315287087877946
99.0,1.1345076294382197
99.25,1.2688993810273297
99.5,1.3167660914350336
99.75,1.2690660413434285
100.0,1.128645704173172
100.25,0.9104902186856472
100.5,0.6390847089694828
100.75,0.3436278523948901
101.0,0.0524688438299051
101.25,-0.2116876153001715
101.5,-0.4345836173764791
101.75,-0.6106785712350192
102.0,-0.741158683276773
102.25,-0.8306216052689538
102.5,-0.8836886962826774
102.75,-0.9026866880455208
103.0,-0.8870695775546305
103.25,-0.8345992128895646
103.5,-0.7436939967379382
103.75,-0.6159835479678278
104.0,-0.4580763235012655
104.25,-0.2818436086754993
104.5,-0.1030303504952496
104.75,0.0614533429649292
105.0,0.1967992647959036
105.25,0.2932127644501504
105.5,0.3476858965622927
105.75,0.364204955091479
106.0,0.3524232725255279
106.25,0.3252451407029312
106.5,0.2960172688966564
106.75,0.2760476693137403
107.0,0.2729797232186883
107.25,0.2902195130985808
107.5,0.3272647949307526
107.75,0.3805327208207472
108.0,0.4442118501264664
108.25,0.5107893734478832
108.5,0.5711733429990403
108.75,0.6146340935073294
109.0,0.6290020769483816
109.25,0.6015799814556811
109.5,0.5210196959746198
109.75,0.380029574911021
110.0,0.1783418133824587
110.25,-0.0749500713018006
110.5,-0.3606295518153478
110.75,-0.6508374720142664
111.0,-0.9128880913944912
111.25,-1.114805315781333
111.5,-1.231346709923799
111.75,-1.2489840159197625
112.0,-1.168468589500648
112.25,-1.0042224813196716
112.5,-0.7806946660135998
112.75,-0.5267247228436598
113.0,-0.2695558621011424
113.25,-0.0302130360008824
113.5,0.1785397507349497
113.75,0.3513713204842743
114.0,0.487419413843615
114.25,0.586684098108481
114.5,0.6474680213509354
114.75,0.6660898621483485
115.0,0.6391219605210188
115.25,0.567268858968235
115.5,0.4591486527837078
115.75,0.3330248905863864
116.0,0.21510310504368
116.25,0.1342012543845735
116.5,0.1140207090086005
116.75,0.1653585652562964
117.0,0.2809603030934212
117.25,0.4351110545555082
117.5,0.5886449527020887
117.75,0.6982707282241339
118.0,0.7275882706169648
118.25,0.656469631641384
118.5,0.485894625192071
118.75,0.2367688789280086
119.0,-0.0567624376963376
119.25,-0.3571514641533947
119.5,-0.6330509911941608
119.75,-0.8654710338827774
120.0,-1.048608725784834
120.25,-1.1854979997153388
120.5,-1.2806043004206464
120.75,-1.3326763135645634
121.0,-1.3310918666397438
121.25,-1.257590119945306
121.5,-1.0931389518038317
121.75,-0.8275376565490028
122.0,-0.468027297567882
122.25,-0.0432246335448115
122.5,0.3998337855305326
122.75,0.805333134338223
123.0,1.1222971044944705
123.25,1.3178068870596469
123.5,1.385291391244904
123.75,1.3448396857448308
124.0,1.2351459700114218
124.25,1.0996212824702951
124.5,0.9713489355098438
124.75,0.8621202692282575
125.0,0.7595046745932388
125.25,0.6331776681731353
125.5,0.4484785971347834
125.75,0.1825338155057643
126.0,-0.1627884863726429
126.25,-0.5559112621941478
126.5,-0.9407636034527626
126.75,-1.2509158271631955
127.0,-1.4282718293338068
127.25,-1.4402893629667546
127.5,-1.290059824469893
127.75,-1.015863511694529
128.0,-0.6802559183608979
128.25,-0.3521683418379201
128.5,-0.0877603832764386
128.75,0.083911965789346
129.0,0.1660417449606807
129.25,0.1887727279501506
129.5,0.195662119577583
129.75,0.2267470788499102
130.0,0.3040038656296525
130.25,0.4239683100330227
130.5,0.5597003125634122
130.75,0.6710433438140377
131.0,0.7193639156270215
131.25,0.6815738091462549
131.5,0.558657670266233
131.75,0.3759437084301795
132.0,0.175227140331191
132.25,0.0015855531095007
132.5,-0.1105980958996876
132.75,-0.1477834173748078
133.0,-0.1204030393351719
133.25,-0.0582134390268384
133.5,0.0003265241860096
133.75,0.020983829855468
134.0,-0.015253142984657
134.25,-0.106523267948811
134.5,-0.2313172082393412
134.75,-0.3558491068658461
135.0,-0.4449564849351055
135.25,-0.4729677422993875
135.5,-0.4312138393009103
135.75,-0.3301118285247915
136.0,-0.1955392321054121
136.25,-0.0609472529603675
136.5,0.0421989485097576
136.75,0.0928033482552492
137.0,0.0851004976522804
137.25,0.0291426880209698
137.5,-0.0528835153614571
137.75,-0.1331065678929993
138.0,-0.1852185117546688
138.25,-0.1906149190508347
138.5,-0.142081443863438
138.75,-0.0445049669738101
139.0,0.0871061638805019
139.25,0.2314343954152665
139.5,0.3654005330865891
139.75,0.4684275012825475
140.0,0.5256912325145984
140.25,0.5299949078166153
140.5,0.4822273515687671
140.75,0.3905870781279525
141.0,0.2688645024296842
141.25,0.1341095689920251
141.5,0.0040144950107439
141.75,-0.1056591609528351
142.0,-0.1832803942381982
142.25,-0.2228669734334871
142.5,-0.2246795391272924
142.75,-0.1947766231472715
143.0,-0.143595449432925
143.25,-0.0838206482342288
143.5,-0.0279664279265504
143.75,0.0138236020887174
144.0,0.0352935505690359
144.25,0.0346019001892522
144.5,0.0137949540730248
144.75,-0.0225644607879686
145.0,-0.0691793393825056
145.25,-0.1216644301949135
145.5,-0.177545479755553
145.75,-0.2362898039737361
146.0,-0.2983424366443329
146.25,-0.3634675847130773
146.5,-0.4289544220517323
146.75,-0.4883535904589705
147.0,-0.5313172416061948
147.25,-0.5448289022159143
147.5,-0.5156993506037434
147.75,-0.4337877715044337
148.0,-0.2951156389965428
148.25,-0.1039796233869816
148.5,0.1266196837958076
148.75,0.3764787647154596
149.0,0.6213263491553739
149.25,0.8368211611353379
149.5,1.0023886204292287
149.75,1.103938421231755
150.0,1.134877910499457
150.25,1.0953988198422393
150.5,0.9905761664103986
150.75,0.8281779483582614
151.0,0.6171059123096887
151.25,0.367052397983737
151.5,0.0893800866779372
151.75,-0.2013764015149747
152.0,-0.4863865311850904
152.25,-0.7427891686988561
152.5,-0.9459421083612062
152.75,-1.073522943423993
153.0,-1.1105568564058033
153.25,-1.0538862266489588
153.5,-0.9145037996422272
153.75,-0.7166324896027823
154.0,-0.4933446792713792
154.25,-0.279597010283295
154.5,-0.1044551482235724
154.75,0.0153229738770365
155.0,0.0784549222992025
155.25,0.0980609076082114
155.5,0.0966155357323887
155.75,0.0984100542232263
156.0,0.1217984858189529
156.25,0.1735889466893702
156.5,0.2472861239877264
156.75,0.3256904192351221
157.0,0.3869915226868086
157.25,0.4123943496958187
157.5,0.3928338229510286
157.75,0.3326237649419399
158.0,0.248849301228373
158.25,0.1666430793010263
158.5,0.1117628736422469
158.75,0.1027155128475679
159.0,0.1448022547059202
159.25,0.2278690873795094
159.5,0.3284304279676271
159.75,0.4155481743140733
160.0,0.4587805585624993
160.25,0.4359747341800425
160.5,0.3387995480540709
160.75,0.174632856238086
161.0,-0.0355083801520642
161.25,-0.2622068351459283
161.5,-0.4744547702705321
161.75,-0.6461320856259882
162.0,-0.7605015215656648
162.25,-0.8117702574883021
162.5,-0.8036847377643869
162.75,-0.7459824528516033
163.0,-0.6500766501578747
163.25,-0.525454208956756
163.5,-0.377915229194764
163.75,-0.2100986753804383
164.0,-0.023937150899952
164.25,0.1759896729007601
164.5,0.37957439948688
164.75,0.5700465175181677
165.0,0.7253375914953306
165.25,0.821913712771262
165.5,0.8402148640074244
165.75,0.770229621393247
166.0,0.6155389263742407
166.25,0.3944685545191353
166.5,0.1377314724297711
166.75,-0.1170843945667531
167.0,-0.3329066486135449
167.25,-0.4805884540299478
167.5,-0.5444286977666086
167.75,-0.5244082580726922
168.0,-0.4346859067010165
168.25,-0.2989724859935702
168.5,-0.144276555748562
168.75,0.0050929771029967
169.0,0.1316000134861736
169.25,0.2257175982586593
169.5,0.2844472722680572
169.75,0.308192139226789
170.0,0.2975860989041913
170.25,0.2517990757055361
170.5,0.1691630891936795
170.75,0.0499363281458586
171.0,-0.0999788093994677
171.25,-0.2661359448974716
171.5,-0.4251578650554986
171.75,-0.5477940785100128
172.0,-0.6051383460700336
172.25,-0.5764675491825455
172.5,-0.4563272259542568
172.75,-0.2584080760697079
173.0,-0.0145226595790924
173.25,0.2315973279683751
173.5,0.4343401800331935
173.75,0.5574425438809989
174.0,0.5832219157031888
174.25,0.5170671969761963
174.5,0.3857535266638432
174.75,0.2299419842720947
175.0,0.0929467052964513
175.25,0.0089630932473971
175.5,-0.0058963055681145
175.75,0.0427379287180853
176.0,0.1300475973913422
176.25,0.2198854585330361
176.5,0.2755164435277279
176.75,0.2700748002279049
177.0,0.1937825561921886
177.25,0.0560432794229391
177.5,-0.1179059270684607
177.75,-0.2945206652431129
178.0,-0.4412637458809029
178.25,-0.5349497550205817
178.5,-0.5668135291398267
178.75,-0.5430871140142516
179.0,-0.4812446637882348
179.25,-0.4033217483963583
179.5,-0.3284870448984177
179.75,-0.2671496987637738
180.0,-0.2183313810190217
180.25,-0.1710052947586111
180.5,-0.1089096919763824
180.75,-0.017315666847901
181.0,0.1103543014143579
181.25,0.2681461118562424
181.5,0.4369139196423499
181.75,0.587821245128712
182.0,0.6892448913653493
182.25,0.7152888108968943
182.5,0.6535391349344672
182.75,0.5097594952792971
183.0,0.3079578706843796
183.25,0.0854883487302363
183.5,-0.1157364478018939
183.75,-0.2596531122277103
184.0,-0.3252008985698779
184.25,-0.3115542467953096
184.5,-0.2377862954856326
184.75,-0.1368921988565891
185.0,-0.0457896471270382
185.25,0.0058026821321738
185.5,0.0042570035406922
185.75,-0.0440805363892276
186.0,-0.1153240302765732
186.25,-0.1761622448945714
186.5,-0.1951987308496979
186.75,-0.1539650258829341
187.0,-0.0540601594486859
187.25,0.0819833648641567
187.5,0.216556497981675
187.75,0.3078636352430959
188.0,0.3225224051706427
188.25,0.2459653438754374
188.5,0.0874038852073427
188.75,-0.1221736753506625
189.0,-0.3383036514395885
189.25,-0.5150243085301025
189.5,-0.6168259802849468
189.75,-0.6270083730207805
190.0,-0.5501599010361584
190.25,-0.4084397391784852
190.5,-0.2333173952435218
190.75,-0.0557485015099572
191.0,0.1019732366424922
191.25,0.2302802558145099
191.5,0.3314820036162381
191.75,0.4149086869642032
192.0,0.490237232421462
192.25,0.561605439340641
192.5,0.6245907998956536
192.75,0.6669187929702238
193.0,0.672362083088116
193.25,0.6262188713943916
193.5,0.5203730165098431
193.75,0.3563108416344405
194.0,0.1453778036772339
194.25,-0.0934035765237066
194.5,-0.3368808602127808
194.75,-0.5614021501052546
195.0,-0.7455907504548438
195.25,-0.8719885730779526
195.5,-0.92792575271797
195.75,-0.9062648552294036
196.0,-0.8064866938038844
196.25,-0.6360399550350821
196.5,-0.4112671302997716
196.75,-0.1568963897013306
197.0,0.0967075284611096
197.25,0.318606012503744
